atr
0.0
0.34714
0.76092
1.22942
1.47732
1.75251
1.97091
2.2087
2.58022
2.66306
2.99141
3.15131
3.23336
3.28884
3.50035
3.69604
4.50846
4.66072
4.81066
5.0099
5.0092
5.0064
5.03665
5.03475
5.1037
4.98915
4.87992
4.78136
4.95483
4.92234
4.97575
4.82819
4.83832
4.89987
4.98845
4.99499
5.24606
5.48492
5.60599
5.42199
5.25757
5.15131
5.11407
5.08093
5.04157
4.96218
4.88059
4.85555
4.89872
4.93596
4.93982
5.17983
5.1527
5.12679
5.07774
4.95647
4.87029
4.94884
5.03893
4.929
4.81622
4.77649
4.84745
4.82978
4.71836
4.79277
5.09186
5.09029
5.0517
4.96444
4.91269
4.82107
5.30814
5.2797
5.32615
5.18571
5.07244
4.97941
4.8816
4.87577
5.11321
4.97941
4.87231
4.74858
4.72153
4.685
4.82321
4.8387
4.89665
4.89117
4.74609
4.67422
4.54607
4.41135
4.45482
4.43448
4.35487
4.19881
4.04175
3.96734
4.08967
4.07113
3.93962
3.92679
4.0263
3.97085
3.82436
3.80548
3.87295
3.80345
3.6682
3.71333
3.65666
3.83547
3.67365
3.62554
3.52657
3.52253
3.40878
3.42244
3.35869
3.33307
3.32999
3.20428
3.11112
3.04247
3.11015
3.16014
3.5487
3.94093
3.9273
3.93106
3.87098
4.01591
3.96621
3.96291
3.86127
3.84475
3.74084
3.75364
3.66338
3.65314
3.76291
3.87842
3.86496
3.87532
3.78565
3.72311
3.74431
3.89829
4.03627
3.97225
4.03138
4.03414
3.97598
3.91056
3.8048
3.83017
3.76302
3.68709
3.5523
3.43927
3.41433
3.2733
3.13521
3.08912
3.23561
3.37593
3.53693
3.80287
3.84552
3.80155
3.75359
3.67833
3.65416
3.76601
4.76629
5.69584
5.95114
6.23249
6.35874
6.4374
6.51473
6.53082
6.47005
6.32147
6.19565
6.37882
6.43962
6.78679
6.82845
7.04141
7.58846
8.23928
8.2629
8.58127
8.49046
8.47686
8.32851
8.01362
7.99265
8.31174
8.20805
7.99176
7.85877
7.656
7.43558
7.30446
7.04843
6.88783
6.78227
7.08139
7.47058
7.24911
7.28132
7.47551
7.3194
7.13801
7.05958
6.95747
6.85194
6.75537
6.69856
6.74723
6.52457
6.60425
6.35751
6.12841
7.36638
7.80378
9.07065
9.11632
8.91301
8.66565
8.54454
8.31135
8.03626
7.83081
7.62004
7.75289
7.58626
7.26867
7.01662
6.97972
6.85045
6.65042
6.40182
6.33383
6.43213
6.65983
6.59199
6.54613
8.03712
8.1159
8.02834
8.01845
8.20571
7.96101
7.80094
7.82945
7.79591
7.55478
7.25587
7.17616
7.00572
6.8196
6.6182
6.45475
6.32656
6.07895
6.17474
6.2544
6.01694
6.43002
6.42002
6.47216
6.427
6.2015
6.1664
5.97165
5.75939
5.60444
5.39269
5.30036
5.49247
5.34944
5.15734
5.12253
5.15235
5.03646
4.83172
4.68731
4.56393
4.54008
4.45364
4.48481
4.5209
4.64583
4.7197
4.61329
4.61163
4.44223
4.3485
4.29218
4.22416
4.12029
4.01313
3.92076
3.85357
3.86403
4.04017
4.16301
4.10208
4.02979
3.83481
3.85018
3.88088
4.01582
4.41326
4.51374
4.71562
4.77879
4.71316
4.77008
4.76864
4.82374
4.88061
4.86628
4.77369
4.71486
4.51022
4.46092
4.268
4.26243
4.2394
4.6473
4.79749
4.67767
4.56284
4.58549
4.61653
4.77606
4.75706
4.88084
4.84435
4.78904
4.70411
4.62167
4.54155
4.3993
4.25935
4.17368
4.37413
4.28955
4.13958
4.07318
3.92939
3.798
3.70314
3.74578
3.61965
3.57539
3.56572
3.52745
3.48763
3.37423
3.2275
3.13339
3.35744
3.30048
3.26473
3.29653
3.23464
3.16074
3.13925
3.19431
3.20543
3.39076
3.54999
3.63642
3.70524
3.59058
3.8634
3.88601
3.9213
3.96049
3.95046
3.874
3.83728
3.80462
3.78857
3.97296
3.96204
3.94403
4.19089
4.24082
4.15077
4.12357
4.34188
4.31889
4.34183
4.32027
4.37454
4.41636
4.3659
4.25619
4.21575
4.46177
4.4445
4.31275
4.13327
4.09018
4.03874
3.89668
3.91049
3.94474
3.86298
3.77276
3.70185
3.67886
3.59466
3.64004
3.51646
3.401
3.26593
3.20408
3.09593
3.20622
3.14649
3.00674
2.96126
3.09046
3.03399
2.97157
2.95717
2.86737
2.7697
2.67687
2.87852
2.99291
2.99913
2.94348
2.87109
2.8003
2.8817
2.85872
3.04239
3.02936
2.95869
2.86807
2.78678
2.99844
2.90283
2.94549
2.94724
3.16672
3.17267
3.25891
3.3897
3.49687
3.43495
3.43674
3.30054
3.21407
3.35164
3.29081
3.27146
3.28707
3.33443
3.17982
3.09555
3.09587
2.97188
2.90889
2.81682
2.77562
2.70379
2.74995
2.69924
2.86858
2.85154
2.85857
2.96653
2.95321
2.86869
2.89236
2.82076
2.78856
2.88724
2.88672
2.8191
2.82916
2.81065
2.80989
2.7499
2.81562
3.21022
3.50092
3.82799
4.32742
4.35618
4.45002
4.49288
4.63196
4.61825
4.56623
4.39078
4.30001
4.47501
4.50823
4.57621
4.44362
4.35551
4.18511
4.24332
4.25094
4.21516
4.24265
4.0696
4.00034
3.91246
3.81086
3.75294
3.78059
3.68483
3.63591
3.52335
3.70954
3.791
3.67093
3.57658
3.53682
3.49062
3.607
3.51865
3.45017
3.58087
3.52724
3.44672
3.56696
3.65146
3.62136
3.63769
3.67785
3.65943
3.72447
3.83987
4.07274
4.06254
4.82022
4.86092
4.80871
4.9638
4.97353
4.9397
4.88044
4.91541
4.81931
5.01507
5.00899
4.90692
4.74857
4.81582
5.78826
6.01624
6.04222
5.99492
6.01028
5.82598
5.78841
5.65495
5.49174
5.28733
5.31823
5.21122
5.41685
5.22921
5.26641
5.24881
5.08318
4.87653
4.77463
4.88573
4.83889
4.66397
4.52583
4.43898
4.51191
4.47035
4.30032
4.15244
4.24798
4.09098
4.03449
3.89774
3.81076
3.68999
3.65499
3.64463
3.78002
3.83359
3.69904
3.63697
3.57076
3.48427
3.35326
3.29445
3.36342
3.52675
3.69412
3.80526
3.81988
3.85775
3.87576
3.87892
3.86329
3.90234
3.86146
3.72564
3.79381
4.04853
4.18792
4.40522
4.58127
4.46404
4.47518
4.64124
4.73258
4.59882
4.73176
4.64878
4.61958
4.73747
4.75622
4.65578
4.70608
4.6535
4.56754
4.53557
4.43303
4.35924
4.43572
4.54532
4.52636
4.41234
4.35003
4.17288
4.27125
4.19759
4.0999
3.93777
3.84721
3.77313
3.7729
3.83555
3.85444
3.8177
3.81215
3.77985
3.747
3.61079
3.51645
3.6167
3.67836
3.59991
3.54706
3.48656
3.46609
3.3278
3.20938
3.15014
3.1537
3.05415
2.95671
2.8598
2.90339
2.82743
2.78333
2.87809
4.01823
4.26764
4.46281
4.41618
4.33931
4.63865
4.79588
5.00618
5.10574
5.09533
5.03852
5.36434
5.72117
5.75395
5.66009
5.60294
5.74059
5.85198
5.94183
6.09742
6.14046
6.11543
6.14075
6.46641
7.35953
7.19742
7.28332
7.11594
7.1748
7.22374
6.98776
6.84363
6.84552
6.61441
6.46195
6.4211
6.15459
6.11283
5.9362
5.8329
5.71127
5.69332
5.53951
5.40597
5.30626
5.07867
5.35234
5.53146
5.86921
5.79998
5.70498
5.71248
5.65159
5.88505
6.18969
6.27114
6.17463
6.44358
6.90904
6.91054
6.6505
6.59404
6.67303
6.56853
7.15649
