atr
0.0
0.02571
0.03816
0.04758
0.06061
0.07485
0.08093
0.08587
0.09045
0.09542
0.09932
0.10365
0.11267
0.11391
0.11506
0.11541
0.1136
0.1162
0.11576
0.11177
0.11593
0.11979
0.12481
0.14018
0.1716
0.18934
0.19581
0.19611
0.19425
0.19466
0.20218
0.20631
0.24586
0.24973
0.24475
0.24298
0.27848
0.28216
0.28629
0.28299
0.2842
0.27604
0.26704
0.25725
0.24959
0.23962
0.24393
0.24222
0.26278
0.26758
0.35847
0.37501
0.37393
0.39794
0.39951
0.39384
0.39142
0.38846
0.38214
0.36913
0.36419
0.36604
0.35775
0.35577
0.34678
0.3363
0.32513
0.31191
0.30677
0.30058
0.30268
0.29391
0.29292
0.28843
0.27997
0.27997
0.27569
0.26742
0.25761
0.26492
0.26957
0.26389
0.26289
0.2584
0.25137
0.26627
0.29297
0.29061
0.32843
0.34425
0.33681
0.32918
0.34067
0.32919
0.32782
0.32726
0.33888
0.33039
0.32465
0.31575
0.32319
0.31797
0.3124
0.31794
0.32952
0.33098
0.33091
0.32942
0.33874
0.33883
0.37249
0.3766
0.36612
0.3714
0.36202
0.3483
0.33271
0.3268
0.32274
0.31469
0.34721
0.34241
0.35795
0.36238
0.3565
0.36104
0.35382
0.35355
0.35258
0.36597
0.38054
0.39122
0.40113
0.40891
0.42398
0.4237
0.42915
0.41635
0.40304
0.39711
0.40375
0.39633
0.40088
0.38939
0.38872
0.38024
0.37737
0.37327
0.37232
0.3693
0.3572
0.35026
0.35453
0.33778
0.34008
0.33507
0.33971
0.36759
0.40419
0.45032
0.46458
0.47425
0.52824
0.55265
0.5896
0.57677
0.58843
0.57712
0.57589
0.56476
0.54513
0.52977
0.51264
0.49602
0.48273
0.46611
0.45139
0.43129
0.42263
0.40958
0.39961
0.3975
0.39268
0.37891
0.37185
0.36457
0.3521
0.35195
0.3411
0.34745
0.34192
0.33392
0.32864
0.3366
0.3447
0.33722
0.33885
0.33036
0.3189
0.32184
0.32742
0.31761
0.31849
0.31431
0.319
0.3355
0.35011
0.3501
0.36224
0.35351
0.33969
0.33257
0.32595
0.31696
0.30932
0.30794
0.32023
0.32307
0.31499
0.31321
0.30226
0.29924
0.29787
0.28802
0.28459
0.28069
0.28707
0.28728
0.28819
0.28189
0.27676
0.28056
0.27266
0.26533
0.25638
0.24592
0.23907
0.23271
0.22609
0.22351
0.23754
0.237
0.24293
0.23415
0.23814
0.23113
0.22534
0.21853
0.21077
0.21143
0.20562
0.20093
0.19515
0.19121
0.18755
0.18701
0.19008
0.18722
0.18242
0.17796
0.18168
0.18156
0.17573
0.17889
0.19183
0.19241
0.19153
0.18713
0.18805
0.18033
0.17531
0.17064
0.16917
0.16709
0.18229
0.1807
0.17494
0.16958
0.1789
0.17969
0.19043
0.19254
0.19379
0.19138
0.18556
0.18017
0.18087
0.18795
0.19024
0.18736
0.18612
0.18283
0.1812
0.18754
0.18272
0.18395
0.20153
0.20142
0.20132
0.19765
0.19068
0.21134
0.21982
0.21912
0.22632
0.22016
0.21157
0.21075
0.20284
0.19763
0.19495
0.19174
0.19804
0.19389
0.1929
0.18627
0.18225
0.17994
0.17638
0.17306
0.18213
0.18198
0.18184
0.17528
0.1799
0.17919
0.17425
0.17323
0.18157
0.19432
0.18687
0.18352
0.18612
0.18354
0.18043
0.18112
0.17961
0.18464
0.18716
0.18522
0.18271
0.1768
0.17274
0.16897
0.16405
0.16304
0.17426
0.17681
0.17775
0.17791
0.1752
0.17197
0.18041
0.18395
0.18438
0.18407
0.19021
0.18733
0.20752
0.20699
0.21649
0.21388
0.21003
0.20932
0.20008
0.19436
0.19119
0.18611
0.1821
0.18481
0.18375
0.18491
0.18527
0.20347
0.20465
0.20074
0.20283
0.19906
0.19484
0.19021
0.18448
0.19988
0.20203
0.20688
0.21068
0.21706
0.22655
0.22323
0.21657
0.21324
0.21515
0.21479
0.2123
0.22714
0.22306
0.22427
0.22182
0.23026
0.22381
0.22854
0.23579
0.24252
0.23877
0.24028
0.23526
0.23346
0.23678
0.23415
0.23672
0.23624
0.23293
0.23201
0.24829
0.30699
0.31292
0.30699
0.29578
0.28894
0.28544
0.28148
0.27638
0.28521
0.29269
0.30393
0.30151
0.2964
0.28451
0.29205
0.28476
0.27799
0.27528
0.27418
0.27603
0.26703
0.25795
0.24524
0.24201
0.2383
0.23913
0.23062
0.23486
0.23737
0.2447
0.24651
0.24462
0.24572
0.24031
0.23243
0.23368
0.23056
0.22981
0.22482
0.21734
0.21753
0.21627
0.2244
0.22551
0.22369
0.21985
0.21772
0.21288
0.20696
0.20432
0.20973
0.20832
0.20701
0.23151
0.24855
0.25794
0.25451
0.2599
0.25991
0.25992
0.25207
0.26263
0.2603
0.26314
0.2572
0.26097
0.25947
0.25808
0.2575
0.26411
0.27453
0.27135
0.26483
0.25448
0.25488
0.2581
0.27895
0.2776
0.30491
0.3167
0.30979
0.33338
0.36814
0.40899
0.41192
0.40464
0.40788
0.39731
0.39965
0.3961
0.38995
0.42281
0.44761
0.43921
0.43641
0.43738
0.44185
0.44672
0.44196
0.4461
0.46995
0.4671
0.50088
0.49939
0.49443
0.48268
0.47178
0.46879
0.44745
0.43978
0.43622
0.44006
0.43077
0.41929
0.4272
0.43883
0.45677
0.482
0.46828
0.45269
0.44679
0.43059
0.42983
0.42556
0.42302
0.4278
0.41939
0.41229
0.43427
0.43539
0.43429
0.43184
0.41385
0.40215
0.39771
0.38287
0.3791
0.37559
0.39948
0.44951
0.46241
0.50009
0.57866
0.62089
0.61655
0.70465
0.70289
0.80197
0.85611
0.92639
0.90379
0.90852
0.90505
0.89469
0.87936
0.86512
0.83832
0.8063
0.77228
0.76212
0.74482
0.75948
0.7488
0.79817
0.81902
0.85766
0.88568
0.87885
0.8725
0.83732
0.80394
0.77723
0.76457
0.75282
0.7369
0.72284
0.71835
0.6999
0.68205
0.6719
0.65605
0.62776
0.62578
0.65465
0.65932
0.68937
0.7287
0.74736
0.73184
0.76242
0.83796
0.84668
0.83192
0.81821
0.82405
0.91662
0.91329
0.89734
0.88967
0.86684
0.85921
0.83569
0.83743
0.82904
0.82411
0.8181
0.82324
0.83943
0.81876
0.79456
0.78352
0.77827
0.74197
0.71754
0.69914
0.66563
0.63237
0.60292
0.58414
0.59884
0.60464
0.59217
0.58344
0.57962
0.56251
0.54947
0.54737
0.55541
0.53431
0.52829
0.51055
0.50194
0.48752
0.47412
0.45811
0.44468
0.43434
0.41975
0.40262
0.39244
0.38083
0.36292
0.34699
0.34792
0.34164
0.35653
0.35392
0.35292
0.367
0.38507
0.38399
0.38299
0.37778
0.37008
0.35936
0.35941
0.35016
0.34944
0.34234
0.36074
0.36497
0.3589
0.35255
0.35023
0.34235
0.33433
0.33402
0.34516
0.34908
0.34343
0.34318
0.3401
0.33581
0.33039
0.32394
0.33508
0.33258
0.32454
0.32707
0.33871
0.33451
0.33133
0.3291
0.34916
0.35351
0.33826
0.33409
0.33595
0.32266
0.3239
0.32505
0.33112
0.32818
0.3176
0.32348
0.33038
0.35392
0.3865
0.42246
0.42443
0.41911
0.42061
0.40556
0.39445
0.39199
0.37971
0.38758
