atr
0.0
2.165
4.65536
6.29783
7.66156
8.9743
10.13757
10.72417
11.80459
12.04854
12.71651
13.43461
14.27
14.16428
15.26183
16.13099
20.58306
21.12784
21.31371
22.0763
22.27514
22.24334
22.22882
21.83033
22.44245
22.76228
22.19354
21.38972
21.78188
21.39246
21.30871
21.00523
21.76557
22.20232
22.17858
22.17868
24.67735
26.46325
26.74373
26.1049
25.66883
25.79392
25.59006
26.25435
27.16904
27.68696
27.76646
28.15743
29.45047
29.65044
29.55541
31.33645
31.27385
31.08286
30.55051
30.10262
29.84314
30.81435
30.64832
29.94987
29.29845
29.00499
29.96749
29.74267
29.25891
30.30042
32.19467
32.29148
31.8878
31.4851
30.77117
30.27323
33.22157
32.39503
32.75181
31.32382
30.68784
29.72799
28.73456
27.99067
28.75705
28.13297
27.18133
26.00909
26.08273
26.06682
26.13062
26.177
26.66007
27.27221
27.2592
26.80711
25.80803
25.37389
25.00147
24.44779
24.29223
23.80922
23.2807
22.52565
24.68168
24.21227
23.70568
23.72742
23.55689
23.0414
22.44201
23.10758
23.65561
23.53664
23.05759
24.84205
25.21048
24.96687
24.62424
25.29036
25.96534
26.6171
26.69731
27.40821
28.41405
28.45305
28.0264
26.95809
26.4768
25.91774
26.18933
26.44295
25.73631
25.44515
24.96692
24.70143
23.9399
25.7049
25.18955
25.21958
24.49319
24.3101
24.15652
24.23534
23.82139
23.91129
26.21548
26.09438
25.83335
25.94525
25.27631
24.89943
25.03733
25.98752
27.53055
27.84051
27.61976
28.46121
28.15112
28.41818
28.28688
29.05211
29.09053
28.84478
28.12301
27.25422
28.06035
27.11318
27.05795
26.8031
29.06716
29.61522
30.66699
29.71292
29.10628
28.95155
28.09215
27.42057
27.07339
27.02743
26.20261
25.96386
25.17858
25.45511
26.5526
25.85813
25.46898
25.95762
25.91208
25.14693
24.46572
23.85317
23.61509
23.61901
24.30194
23.64037
26.0482
28.12761
29.45278
29.52259
28.99669
28.2655
27.13367
27.22627
27.27868
26.78806
26.05105
25.63169
26.13014
25.71942
25.52517
25.50481
25.96875
25.89955
25.74387
27.33074
29.52997
29.06783
30.11013
30.70083
30.49149
30.12209
29.41766
29.00925
28.75645
28.12456
27.94424
29.00965
28.12396
28.45939
27.81229
27.95213
27.94698
27.61148
28.99637
28.39377
28.07565
28.21596
28.51982
28.40126
28.7676
29.0492
28.35068
29.72064
29.2113
28.3055
27.52725
27.25244
26.49727
25.62246
25.38015
25.55299
25.19635
25.55447
25.30629
24.95013
26.75869
26.41307
26.95285
25.9505
25.88618
25.97574
27.12033
27.22888
27.64467
26.69934
26.00653
26.39678
26.39558
25.63375
25.10705
25.08012
24.38154
23.47072
23.53852
23.23791
22.32092
26.00586
26.46901
28.23479
28.06731
27.24893
27.35901
26.92122
27.30756
26.73202
26.56545
26.01506
27.25184
26.44099
26.15021
25.72519
25.72625
24.83295
24.87917
24.79994
24.24637
23.90592
23.50764
23.17924
22.49358
23.72832
24.44987
23.72988
24.19346
23.8725
23.83875
24.47955
23.87387
23.91574
23.43318
23.00796
22.43167
22.6737
24.44772
25.7386
25.57512
25.40119
24.12396
24.88368
24.90056
26.97409
27.99165
27.99225
30.77209
30.0748
29.30731
29.77179
28.99523
28.99772
28.61216
29.23772
28.68074
28.36926
27.16717
27.2538
26.39139
26.33486
26.31023
29.84593
30.79907
29.71271
28.86395
27.88295
27.32631
29.40943
28.59019
28.23374
27.48991
27.18777
26.66721
26.95098
26.3102
25.63447
24.88058
24.50268
25.90106
25.24313
24.59148
24.19637
23.42234
23.15289
23.34626
24.67795
23.8681
23.59752
23.33555
22.64087
22.35367
21.80483
20.87949
20.67667
21.66548
21.13723
20.58171
21.09873
20.72882
20.49605
20.43633
20.91588
20.2276
21.3592
21.33855
21.79436
21.65619
21.32361
21.07549
21.58224
21.08494
21.04887
20.64538
20.44357
19.68903
19.38124
19.4333
19.32449
19.01131
18.46265
19.13531
19.05422
18.62035
18.57532
20.09923
20.27143
19.7399
20.72776
22.01863
22.0073
21.7225
21.45089
21.12297
22.77061
22.85057
22.2941
21.63095
21.3716
21.61934
21.24082
20.57076
21.31427
21.25183
20.85098
20.43805
20.23534
19.71424
19.6468
19.2356
18.94377
18.23778
17.93294
17.08059
17.88555
17.81944
17.38091
17.40656
17.3718
17.29524
17.08916
16.42707
16.44442
16.02982
15.39769
15.03071
14.52209
14.07766
13.74925
13.83931
13.54578
14.84109
14.85244
14.36226
14.62853
14.23292
13.82128
13.48191
14.54534
14.28782
14.13154
14.99501
16.15036
16.24034
16.90245
16.57442
16.96482
16.52805
16.74676
16.26056
15.85838
17.50064
17.30131
17.21407
17.00021
17.29019
16.36518
16.09124
16.04258
15.62239
15.40222
14.64706
14.24227
14.13568
14.84599
14.92485
16.16879
16.02602
16.22202
16.38044
15.9247
15.71651
15.14033
14.9953
14.84207
14.42478
15.44872
15.32667
15.87262
16.43029
16.11599
15.67699
16.35863
16.26016
16.24443
17.69911
21.46418
22.35531
23.62921
23.5607
23.84136
24.04769
23.89643
23.26669
22.90121
23.54826
23.99696
24.24289
23.75054
22.97336
22.00526
21.63274
21.87469
21.37793
21.49308
20.78928
21.25576
20.5625
20.17732
20.19608
21.42993
21.29565
21.11739
20.71115
21.52964
21.91609
21.26351
20.61898
20.51119
20.13611
20.59639
20.53879
20.71459
20.02283
19.41334
18.81025
19.32666
19.41761
18.63992
18.45064
18.96274
18.64112
19.77032
21.8803
24.40456
24.4021
28.09909
27.72201
27.55115
28.4675
28.66196
28.17039
27.50679
27.07131
26.07764
26.07781
26.51083
26.17291
25.78413
26.06669
27.54121
28.51756
27.87487
27.64238
28.18578
27.74394
27.14223
26.28564
25.43238
24.59079
25.6343
24.74042
26.06039
25.09179
24.63309
23.74287
23.00838
22.0635
21.2011
21.56531
21.07493
20.67458
19.96497
19.54533
19.72709
19.99301
19.42208
18.79193
19.83894
19.2983
18.90771
18.38716
18.03093
18.78229
18.8357
18.94172
19.37517
19.46409
18.98237
18.23934
17.87796
17.5231
16.86003
16.94288
16.67196
16.20253
16.08735
15.8454
16.0493
16.09578
15.61965
15.33896
16.07689
15.49712
15.21232
14.6993
14.88221
15.00919
15.18711
15.2616
15.38077
14.92571
14.45316
13.99579
13.97395
13.55081
13.48361
13.07193
12.77107
12.99528
13.03562
12.91093
13.80658
13.4804
13.55822
13.69049
13.78689
13.54568
14.89956
15.13888
14.9411
14.97888
14.98967
14.82398
14.5937
14.26272
14.40253
13.8602
13.50805
13.57747
13.34194
13.19823
14.77407
15.99663
16.17116
16.09608
16.61636
16.84876
16.34814
17.30898
18.69977
20.09621
20.35077
20.47429
19.97612
19.42497
18.74247
19.16801
19.09387
18.64073
18.82354
18.309
18.8455
18.36725
18.5503
18.121
18.12021
18.69734
19.03681
18.69561
18.33593
18.06122
17.93327
17.63661
16.99542
16.19789
15.87019
16.08732
16.76894
16.09973
15.82832
15.1963
15.50013
15.74441
15.27838
16.21492
15.91029
15.76669
16.48907
19.20771
21.28073
20.86854
21.33293
20.64486
20.76666
20.76332
20.36594
20.49409
20.55308
19.99715
21.63021
21.94519
23.81197
23.78468
24.45649
24.32317
23.90366
23.65268
23.41821
22.69976
23.12121
22.73826
22.32696
22.37575
23.74391
23.66506
23.47898
23.49263
22.7803
22.61885
22.02107
21.75385
21.49572
22.55603
27.42917
27.23923
26.55642
26.35025
25.77523
24.80415
24.75099
