atr
0.0
1.58214
2.65985
6.82414
10.30599
11.28056
11.94481
14.16518
16.39767
17.62498
18.75819
19.73046
19.77257
20.36882
20.00819
20.54117
20.69966
20.29897
21.63047
21.41258
21.20883
21.17105
23.46884
23.14963
24.72037
25.84749
25.9641
26.89095
26.64659
29.06827
28.7191
31.34631
34.24515
35.29049
35.8526
35.45456
36.55995
38.58709
41.18301
41.57423
47.04107
47.49671
48.72337
50.54384
51.23143
52.20204
53.32975
55.7662
68.92575
69.74963
71.02966
72.12897
76.58475
75.79584
75.01328
74.74662
74.16472
73.86724
75.88601
77.94486
78.07523
77.99843
83.31283
90.33262
93.39101
92.34379
92.03852
89.82863
89.79301
89.64565
90.36525
91.54488
94.74953
93.35456
91.45566
89.35026
88.16095
85.82803
83.98817
85.86044
84.22398
82.7137
80.80486
78.3488
75.45246
72.108
74.34314
73.11363
80.4398
78.76124
74.8183
74.28628
74.16797
72.17883
74.95963
73.5518
74.72524
73.34844
71.28498
68.80105
68.90812
66.8054
66.97572
67.13746
64.78835
63.72204
63.51833
63.06273
62.23754
60.142
59.884
60.61086
61.81222
61.34278
67.91401
69.67158
68.68718
68.21738
66.10185
65.06672
66.00338
65.25671
65.78552
64.63941
65.14874
62.4924
61.60009
61.30294
59.44416
58.04957
55.97818
55.10473
56.57583
55.19112
53.67747
55.16765
55.15353
54.64257
52.56238
51.34221
51.21634
50.56517
52.51695
52.36645
53.96385
52.99072
51.94209
49.71837
50.16706
49.25298
48.12206
47.58977
48.38978
47.58266
47.22461
45.77785
45.79586
49.42687
48.42995
50.32353
60.93185
62.13743
61.00761
60.68993
60.8635
60.96111
65.24674
65.61055
67.02765
67.84853
65.15435
66.78619
68.7086
68.17656
69.00395
68.00438
67.39692
67.11571
67.20459
67.90498
72.59819
74.19832
73.68416
73.21529
74.54205
73.16262
71.39529
70.98134
70.28696
68.51718
66.79595
65.73124
63.94972
63.92546
62.9865
65.58889
65.66254
66.14593
64.68622
63.53292
67.05485
67.95879
70.22245
73.02299
74.63063
73.3713
75.19407
80.07949
79.78738
79.30257
77.8631
85.61574
103.87747
108.19765
106.55639
109.43236
114.50791
115.03806
114.69748
113.38766
111.47783
110.48155
109.1043
104.81114
102.35391
102.56792
101.03664
101.54331
99.64164
99.5101
97.4958
95.71253
95.23307
91.88642
90.21453
86.83849
87.37932
86.27222
83.42063
81.65916
79.32279
77.15545
79.03077
80.935
80.48608
77.7785
78.51289
76.31483
80.76805
77.62034
77.41531
75.77565
74.57667
74.93334
75.8081
84.03966
88.70183
88.40527
96.9699
101.22919
99.48496
96.92532
111.07351
141.37826
165.03981
161.28483
155.10305
152.84284
148.68763
146.19709
139.86587
135.68188
138.62246
144.62657
150.30538
151.69286
150.18265
147.80961
141.66963
140.99752
145.33127
147.69975
148.86048
147.47902
146.04837
142.4042
140.48247
139.66587
140.46974
137.6219
134.95248
129.94516
125.41479
122.23659
119.11826
117.11624
114.3758
111.24467
107.22219
103.74561
100.65378
101.63208
99.00336
97.35312
97.94861
94.97014
92.68727
90.07532
91.28351
90.41326
89.8766
86.91756
89.56988
89.91917
87.80137
84.6977
83.29001
81.77787
83.69088
83.27796
82.51096
84.47732
86.74751
85.50126
84.72117
83.11037
83.84606
82.21848
86.88288
86.74124
85.06544
86.88148
85.90066
82.58561
83.9045
88.00918
95.64066
95.04705
90.64654
88.89679
85.8913
82.93764
84.21495
81.37745
81.15907
77.93127
75.86118
74.9661
77.50423
75.92536
77.62284
76.45335
79.50882
86.68676
94.55342
100.54246
102.07086
106.20866
106.29018
103.98231
105.735
105.12893
104.32115
110.2975
118.73125
119.47187
120.34388
121.29432
120.01544
117.19291
114.96984
113.702
112.19685
109.47851
109.81933
112.38795
114.01024
115.04665
121.81046
117.58686
115.49994
120.82137
123.81484
123.52593
124.29693
120.24429
116.7297
110.99472
113.5651
109.67402
109.06373
104.99061
101.46199
98.52614
96.5607
95.11065
99.25846
98.85071
99.65566
101.49169
103.32371
99.54987
97.33988
96.82275
96.06469
94.60507
92.04542
91.09789
91.19233
98.81431
101.26614
102.28785
114.58086
115.07937
113.46013
116.39797
113.72741
110.8183
114.732
136.81257
185.14881
222.70961
230.51607
232.65135
237.0334
233.92387
233.99788
226.12803
224.36317
220.55437
216.53477
218.60872
230.92452
229.80349
225.16181
216.94311
211.2786
205.85084
199.2565
194.57746
187.20621
183.3472
175.68526
169.46988
171.25703
169.59939
164.89586
160.09901
171.85623
169.50864
164.18659
157.58541
152.69288
149.94267
151.5782
149.36975
150.55906
144.16698
138.35577
134.42393
129.60508
125.85543
122.3979
120.14805
117.82747
115.28337
113.31741
109.9826
109.16598
108.45198
128.21184
131.98243
134.30511
130.30832
128.98058
131.95839
132.37565
143.88453
141.14492
137.08886
133.35037
129.11249
127.57874
126.42597
127.3434
128.72173
125.75875
122.10098
122.40877
121.43743
124.58475
121.55084
118.43364
117.31981
118.11554
117.33157
114.24289
113.62625
108.1358
105.78539
106.43143
101.65419
99.34603
98.58917
99.44637
95.36949
94.40953
91.50313
88.38148
88.06423
87.23821
87.7512
92.77897
93.67619
97.54646
95.88814
106.05827
106.58697
107.03361
105.8555
114.87296
117.91489
119.01812
119.10896
119.84332
117.50952
116.92384
112.78356
112.13688
109.05996
106.76639
103.89951
101.81954
98.79029
97.75812
98.60397
97.24297
94.68348
92.04894
94.12616
96.46286
97.4648
97.68303
99.74424
102.86823
103.46978
101.75694
104.66144
105.83848
104.38431
105.37828
103.82269
107.26464
106.82145
107.54992
103.8085
103.54146
100.17207
101.18478
98.22515
99.04621
96.5772
102.74669
102.15478
100.90872
101.89453
103.43992
104.40207
101.69406
100.06949
97.03881
97.91747
95.49765
95.35496
97.74532
94.83708
94.77729
94.1982
94.30404
91.76447
90.752
88.02543
89.7379
86.13877
86.84528
83.42276
83.32114
80.8432
78.40511
83.76546
84.25507
82.704
83.39371
83.19059
81.28055
80.79622
81.36649
79.60174
77.12519
76.79482
79.12876
84.40528
82.81133
82.61195
81.03609
80.96352
79.06041
76.16038
77.58464
76.03931
73.80436
73.08476
72.85299
73.68421
71.45319
70.82225
70.0628
67.63403
65.10874
64.46455
62.91565
64.59668
63.60834
63.00703
62.85296
61.90275
59.79326
57.9416
58.5222
63.05562
64.11164
64.22653
66.62963
67.54752
66.53126
68.88903
74.93481
73.54661
71.79257
70.26453
72.56706
71.36584
71.52757
70.89274
73.33755
76.50201
74.71472
73.28581
75.78897
73.80476
71.55656
69.78466
70.01147
72.56494
70.14244
68.82155
68.15644
68.28098
65.9302
67.60876
68.02099
67.31592
67.69121
68.96398
70.87441
74.03124
72.20972
72.02831
71.802
70.72972
68.33974
69.09833
71.45273
70.3254
70.41072
69.23067
67.34205
68.78833
68.56417
67.7153
67.43563
65.0988
63.84889
64.5304
67.43251
65.07376
64.26278
62.14687
62.50066
60.27704
59.30297
57.21561
56.01593
54.17407
53.58878
52.75458
53.62569
54.68599
54.54699
54.19078
53.08572
52.3096
54.11534
55.26996
57.24497
55.89461
57.32285
56.23908
56.892
56.63471
55.82795
59.04381
58.90425
58.65895
57.76545
56.77149
56.46281
55.05761
54.6235
56.49325
56.02944
57.30877
57.736
58.38914
57.41349
59.28967
59.60684
58.87778
63.61793
62.71951
63.0824
61.89652
62.49534
68.19281
68.2769
66.59855
66.05151
63.94426
61.54967
60.60755
59.53558
58.24518
57.09624
57.61222
58.41278
