atr
0.0
0.00017
0.00019
0.00025
0.00028
0.00035
0.0004
0.00089
0.00137
0.00151
0.00162
0.00256
0.00259
0.00308
0.00314
0.00323
0.00316
0.00313
0.00306
0.00295
0.00284
0.00272
0.00262
0.00245
0.0024
0.00229
0.00226
0.00214
0.0022
0.00237
0.00235
0.00275
0.00298
0.00305
0.00299
0.0031
0.00308
0.0032
0.0032
0.00315
0.00312
0.00301
0.00288
0.00275
0.00267
0.00252
0.00252
0.00247
0.00234
0.00237
0.00229
0.00216
0.0021
0.00198
0.00188
0.00191
0.00208
0.00219
0.00219
0.00222
0.00222
0.00222
0.00224
0.0022
0.00216
0.00213
0.00211
0.00204
0.00201
0.00193
0.00186
0.00184
0.00179
0.00171
0.00168
0.00162
0.00162
0.00155
0.0015
0.00146
0.00159
0.00177
0.00183
0.00219
0.00232
0.00238
0.00265
0.00266
0.00273
0.00269
0.00267
0.00291
0.00305
0.00314
0.00304
0.00291
0.00277
0.00269
0.00261
0.00248
0.00235
0.00223
0.00222
0.00219
0.00222
0.00225
0.0023
0.0024
0.00247
0.00252
0.00274
0.00283
0.00287
0.00281
0.0027
0.00264
0.00254
0.00246
0.00237
0.00227
0.00215
0.0021
0.00209
0.00202
0.00193
0.00187
0.00178
0.00186
0.00185
0.00195
0.00214
0.00225
0.00224
0.00227
0.00239
0.00239
0.00242
0.00235
0.00226
0.00221
0.00212
0.00204
0.00206
0.00199
0.0019
0.00182
0.0018
0.00173
0.00164
0.00156
0.00151
0.0015
0.00153
0.00172
0.00177
0.00182
0.00193
0.00206
0.00206
0.00215
0.00217
0.00226
0.00225
0.00219
0.00209
0.00207
0.00212
0.00201
0.00199
0.00189
0.0018
0.00175
0.0017
0.00168
0.0016
0.00154
0.00149
0.00144
0.00146
0.00161
0.00167
0.00168
0.00172
0.00173
0.00178
0.00174
0.00191
0.00195
0.0019
0.00183
0.00179
0.0017
0.00162
0.0016
0.00153
0.00145
0.00155
0.00154
0.00149
0.00142
0.0014
0.00138
0.00138
0.00147
0.00172
0.00178
0.00177
0.00195
0.002
0.00219
0.00227
0.0023
0.00227
0.00228
0.00228
0.00221
0.00211
0.00201
0.0019
0.00178
0.00177
0.00178
0.00173
0.00166
0.00171
0.00169
0.00174
0.00188
0.00197
0.00241
0.00245
0.00257
0.00293
0.00286
0.00287
0.00287
0.00285
0.00277
0.00267
0.00258
0.00256
0.0025
0.00241
0.00228
0.00222
0.00217
0.00208
0.00198
0.00192
0.00185
0.0019
0.00197
0.00236
0.00246
0.00259
0.00279
0.00278
0.00302
0.00319
0.00318
0.00317
0.00315
0.00299
0.00286
0.00277
0.00268
0.00258
0.00244
0.00236
0.00229
0.00221
0.00212
0.00201
0.00192
0.00206
0.00217
0.00216
0.00215
0.00272
0.00296
0.00309
0.00321
0.00323
0.00313
0.00312
0.00304
0.00301
0.00289
0.00284
0.00286
0.00278
0.00264
0.00265
0.00265
0.00253
0.00247
0.00241
0.00233
0.00225
0.00213
0.00209
0.00207
0.00217
0.00231
0.00231
0.0024
0.00241
0.00243
0.00266
0.00275
0.00272
0.0027
0.00268
0.00269
0.00257
0.0025
0.00241
0.00234
0.00221
0.00211
0.00212
0.00203
0.00195
0.00187
0.00182
0.00183
0.00194
0.00203
0.00203
0.00209
0.0022
0.00223
0.00246
0.00241
0.00237
0.00235
0.00226
0.00214
0.00208
0.00203
0.00197
0.00191
0.00185
0.0018
0.00175
0.0017
0.00165
0.00158
0.00156
0.00164
0.00197
0.00203
0.0021
0.00214
0.00219
0.00233
0.00265
0.00288
0.00284
0.00291
0.00283
0.00271
0.00266
0.0026
0.00254
0.00246
0.00239
0.00232
0.00225
0.00216
0.00207
0.00198
0.00192
0.00192
0.00201
0.00214
0.00219
0.00228
0.00225
0.00229
0.00232
0.00239
0.00235
0.00234
0.00226
0.0022
0.0021
0.00204
0.00206
0.00198
0.00189
0.00191
0.00184
0.00175
0.00168
0.00164
0.00158
0.00155
0.00176
0.00184
0.00189
0.00199
0.00196
0.00223
0.00229
0.00248
0.00247
0.00243
0.00237
0.00231
0.00225
0.00221
0.0022
0.00211
0.00201
0.00199
0.00198
0.00192
0.00184
0.0019
0.00185
0.00177
0.00169
0.00164
0.00158
0.00168
0.00183
0.00198
0.00207
0.00206
0.00225
0.00225
0.00226
0.00228
0.00222
0.00218
0.00209
0.00201
0.00191
0.00189
0.00181
0.00172
0.00168
0.00162
0.00157
0.00152
0.00145
0.0014
0.00139
0.00145
0.00152
0.00152
0.00157
0.00163
0.00177
0.00179
0.00181
0.002
0.00196
0.00193
0.00186
0.00178
0.00178
0.00172
0.00175
0.00167
0.00169
0.00168
0.00162
0.00154
0.0015
0.00145
0.00151
0.00163
0.00183
0.00199
0.00197
0.00204
0.00218
0.00228
0.00256
0.00263
0.00263
0.00254
0.00247
0.00241
0.0023
0.00222
0.00212
0.00204
0.00199
0.00192
0.00183
0.00181
0.00172
0.00175
0.00175
0.00175
0.0018
0.00191
0.00203
0.00225
0.00224
0.00239
0.00246
0.00262
0.00269
0.00261
0.00261
0.0025
0.0024
0.00237
0.00225
0.00216
0.00207
0.00202
0.00195
0.00187
0.00186
0.00184
0.00181
0.00189
0.00194
0.00205
0.00217
0.00218
0.00224
0.00227
0.00238
0.00241
0.00248
0.00242
0.00244
0.00233
0.00227
