atr
0.0
0.04286
0.06765
0.08711
0.09874
0.11169
0.12871
0.14166
0.15868
0.18664
0.24188
0.26674
0.29055
0.29051
0.29976
0.31549
0.31438
0.34693
0.40929
0.40291
0.40699
0.39578
0.40036
0.40605
0.4499
0.45205
0.43262
0.43243
0.41655
0.41894
0.40615
0.39357
0.38832
0.38272
0.39467
0.38077
0.42785
0.44444
0.44769
0.435
0.43821
0.46048
0.45902
0.44623
0.47079
0.50073
0.48568
0.48385
0.48214
0.46413
0.44741
0.42902
0.41266
0.39533
0.39995
0.38781
0.41225
0.42923
0.43643
0.51954
0.566
0.59415
0.66742
0.68404
0.72232
0.7343
0.78185
0.76529
0.74991
0.74491
0.74385
0.76857
0.76653
0.76964
0.74466
0.73076
0.73142
0.74489
0.78954
0.88743
0.89976
0.9462
1.01505
1.04468
1.10578
1.10037
1.07391
1.03149
1.03495
1.01174
0.98805
0.95604
0.92347
0.91536
0.8857
0.91672
0.90767
0.89426
0.88324
0.9023
0.91428
0.92183
0.92741
0.8776
0.86062
0.83129
0.81334
0.79239
0.77008
0.76579
0.75466
0.7229
0.71198
0.68398
0.66012
0.66369
0.65414
0.65598
0.66341
0.66531
0.70279
0.70616
0.69286
0.66552
0.67155
0.66144
0.63705
0.61941
0.60873
0.61525
0.61202
0.60973
0.60404
0.60375
0.6242
0.61818
0.61974
0.61333
0.59595
0.61695
0.63074
0.61069
0.61635
0.60733
0.61181
0.58953
0.58171
0.56944
0.58734
0.64182
0.70954
0.80743
0.85333
0.82595
0.83338
0.82957
0.81674
0.78555
0.77015
0.753
0.7385
0.71503
0.85753
0.90485
0.8895
0.87597
0.84697
0.8679
0.88734
0.89324
1.00087
0.99009
0.95294
0.93845
0.9407
0.93279
0.91902
0.90123
0.894
0.87657
0.86896
0.86261
0.82742
0.86689
0.85211
0.82482
0.82876
0.80814
0.82041
0.82752
0.83199
0.79185
0.80314
0.78935
0.78582
0.79041
0.76466
0.77504
0.76754
0.75343
0.73033
0.70388
0.67574
0.69105
0.67026
0.6581
0.64323
0.63657
0.62325
0.61801
0.61958
0.5989
0.60112
0.58318
0.58224
0.58423
0.63678
0.64772
0.6286
0.61584
0.59828
0.61555
0.59944
0.58305
0.58355
0.58186
0.61745
0.6712
0.71183
0.70741
0.71974
0.75404
0.74733
0.80823
0.80264
0.8196
0.92534
0.90353
0.88542
0.85361
0.88192
0.89178
0.89951
1.09812
1.12325
1.11945
1.14663
1.17473
1.16939
1.14158
1.12075
1.13284
1.12907
1.13913
1.18848
1.22145
1.26634
1.32518
1.30623
1.32365
1.3141
1.28309
1.24716
1.21736
1.20541
1.18859
1.16512
1.12404
1.09518
1.07481
1.0659
1.06905
1.06911
1.02346
1.02107
0.99028
0.95883
0.99606
1.00277
0.974
0.96229
0.93212
0.8984
0.87209
0.85765
0.84853
0.85721
0.83455
0.8678
0.86938
0.86228
0.85355
0.84115
0.81821
0.80691
0.8207
0.78708
0.76872
0.76024
0.74522
0.71485
0.70307
0.68928
0.66648
0.64173
0.61803
0.60246
0.57657
0.58253
0.58163
0.57223
0.55922
0.62284
0.63764
0.62995
0.61567
0.65598
0.64055
0.6398
0.62767
0.62212
0.61126
0.60831
0.60057
0.59267
0.5882
0.58047
0.56829
0.55699
0.54077
0.53072
0.51067
0.50919
0.53496
0.53032
0.54959
0.55533
0.56781
0.56225
0.58637
0.57306
0.58427
0.60039
0.60537
0.5957
0.586
0.56415
0.56599
0.57985
0.58843
0.60926
0.66503
0.74538
0.74357
0.76117
0.76394
0.75223
0.7435
0.72754
0.70557
0.70517
0.68695
0.69217
0.69844
0.69141
0.69774
0.6679
0.66805
0.67033
0.70888
0.69039
0.66607
0.69278
0.71901
0.72123
0.72971
0.75759
0.7999
0.82205
0.82619
0.80789
0.82233
0.84216
0.84129
0.93192
0.92035
0.8939
0.8729
0.90198
0.92113
0.93747
0.94123
0.92614
0.92784
0.93943
0.90875
0.8917
0.87301
0.84993
0.92851
0.9829
0.98698
0.96934
1.04581
1.0504
1.03037
1.02463
1.01144
1.01563
1.00094
0.98873
1.00382
0.97497
0.99176
0.99092
0.98086
0.96079
0.91788
0.89303
0.92853
0.93649
0.90674
0.8934
0.87959
0.86105
0.84812
0.83039
0.78465
0.7436
0.70549
0.68581
0.67397
0.66226
0.65352
0.65041
0.63681
0.61633
0.60087
0.5951
0.59188
0.59031
0.58672
0.57053
0.55406
0.56734
0.64967
0.77541
0.8036
0.7962
0.77147
0.82493
0.84958
0.85247
0.85515
0.85193
0.87036
0.87962
0.87465
0.86289
0.90125
0.90259
0.87312
0.85075
0.85499
0.85677
0.86272
0.85967
0.8704
0.8768
0.88989
0.86918
0.8571
0.93231
0.90643
0.87025
0.87095
0.85231
0.82572
0.81102
0.80524
0.787
0.78365
0.76481
0.75876
0.78885
0.78036
0.74605
0.72418
0.74389
0.75218
0.76774
0.75647
0.78529
0.78492
0.80171
0.80516
0.81265
0.80603
0.78417
0.81244
0.79084
0.80721
0.85884
0.86178
0.94022
0.98378
1.01422
1.01178
0.98022
0.96663
0.92973
0.93189
0.92747
0.90265
0.86746
0.8505
0.82547
0.83508
0.81186
0.8103
0.79885
0.77536
0.79569
0.78528
0.75705
0.74369
0.74271
0.75966
0.76897
0.75119
0.72896
0.71117
0.69895
0.68474
0.6594
0.63944
0.65305
0.65712
0.65447
0.68986
0.69059
0.70483
0.68163
0.68223
0.67207
0.63978
0.62122
0.59614
0.57284
0.56764
0.56852
0.5822
0.5749
0.55883
0.56035
0.54818
0.53402
0.52159
0.51076
0.50071
0.48852
0.47505
0.46398
0.45655
0.48608
0.47708
0.47943
0.4659
0.47905
0.48054
0.46693
0.49858
0.50297
0.48776
0.4872
0.47169
0.513
0.50421
0.49105
0.48741
0.48402
0.46373
0.47347
0.48322
0.46513
0.47619
0.49432
0.48401
0.48301
0.50494
0.50744
0.5112
0.53826
0.54195
0.55396
0.55439
0.5655
0.61725
0.61602
0.63916
0.65494
0.6303
0.62956
0.70245
0.68656
0.67609
0.66709
0.64515
0.65264
0.64602
0.68059
0.69626
0.69653
0.70321
0.71941
0.70731
0.69893
0.679
0.65479
0.62873
0.60525
0.58916
0.58779
0.59367
0.60412
0.59597
0.58126
0.56688
0.5621
0.57981
0.56768
0.55785
0.57229
0.60284
0.60121
0.62469
0.6165
0.62103
0.65382
0.6814
0.66844
0.6557
0.66672
0.68553
0.6787
0.65737
0.66184
0.64599
0.65985
0.65201
0.63972
0.62331
0.61022
0.60663
0.57759
0.58562
0.5745
0.57775
0.57791
0.58235
0.57218
0.56417
0.5503
0.53813
0.53398
0.52798
0.50884
0.48821
0.47976
0.46692
0.44714
0.46449
0.47988
0.46846
0.46857
0.47153
0.48357
0.49974
0.49119
0.48825
0.55908
0.58201
0.57829
0.57984
0.56914
0.55563
0.56666
0.55261
0.54885
0.56822
0.61263
0.62102
0.61737
0.59827
0.60625
0.59081
0.57575
0.57248
0.57302
0.55566
0.54454
0.53065
0.5206
0.50627
0.48582
0.47612
0.47783
0.47013
0.49083
0.50149
0.50424
0.50322
0.5137
0.55344
0.54462
0.52858
0.51582
0.50541
0.49931
0.49364
0.55052
0.55192
0.56249
0.5516
0.54649
0.59817
0.57901
0.56694
0.55716
0.54879
0.55245
0.55941
0.5716
0.56577
0.5575
0.57768
0.57856
0.58295
0.58345
0.58892
0.57543
0.56504
0.55825
0.55837
0.58278
