atr
0.0
0.11321
0.17834
0.19917
0.24102
0.28845
0.2957
0.32636
0.35198
0.3797
0.43543
0.50076
0.50213
0.49734
0.53717
0.57202
0.61151
0.61748
0.64194
0.65502
0.68073
0.66675
0.65341
0.65245
0.63371
0.6363
0.68371
0.7813
0.78121
0.80005
0.77433
0.74188
0.70996
0.69282
0.66797
0.75776
0.78864
0.80873
0.84668
0.87442
1.02982
0.99876
1.02063
1.06487
1.04845
1.02249
1.01196
1.01682
1.01705
0.99154
0.92357
0.85868
0.84377
0.91422
0.88534
0.86568
0.86813
0.83933
0.80259
0.79027
0.78739
0.79686
0.81566
0.76454
0.75314
0.77721
0.7999
0.8642
0.8539
0.88362
0.87443
0.84626
0.81367
0.79733
0.7961
0.76995
0.72317
0.68758
0.64811
0.64932
0.64865
0.65875
0.6367
0.62979
0.60695
0.64502
0.63681
0.62239
0.67972
0.68545
0.77721
0.76705
0.7519
0.73891
0.73042
0.70182
0.69311
0.76289
0.81804
0.76283
0.82762
0.85172
0.92374
0.9399
0.9392
0.91497
0.89568
0.86242
0.83689
0.81854
0.81686
0.82351
0.82219
0.79561
0.82128
0.79297
0.7774
0.78259
0.81312
0.76147
0.81493
0.84494
0.83994
0.81066
0.78454
0.7785
0.80611
0.83746
0.88193
0.88465
0.85217
0.81452
0.78669
0.77622
0.75577
0.75572
0.83995
0.8771
0.89159
0.85612
0.83854
0.8365
0.83318
0.7751
0.8358
0.80789
0.78268
0.75035
0.72961
0.72106
0.70385
0.7075
0.75268
0.75642
0.73203
0.75617
0.77216
0.76879
0.76673
0.76125
0.77581
0.77432
0.74544
0.73398
0.70155
0.66608
0.65922
0.68463
0.69573
0.75532
0.76351
0.75541
0.72538
0.70249
0.67589
0.64797
0.61275
0.62827
0.66804
0.65211
0.6466
0.6272
0.61061
0.61985
0.63951
0.71847
0.72322
0.69585
0.66829
0.64556
0.64016
0.62943
0.58626
0.64367
0.64555
0.63908
0.62665
0.60939
0.59157
0.61646
0.62993
