atr
0.0
0.07
0.08357
0.1026
0.11563
0.10737
0.12256
0.12166
0.12904
0.13875
0.18277
0.259
0.253
0.2485
0.24111
0.2396
0.29463
0.31787
0.29517
0.31373
0.30953
0.29742
0.28082
0.27326
0.26267
0.25998
0.28462
0.41072
0.39067
0.41419
0.39711
0.38732
0.37751
0.37554
0.35336
0.45491
0.42241
0.46188
0.51282
0.53262
0.71243
0.69869
0.67057
0.62945
0.62949
0.61882
0.5814
0.5413
0.55692
0.52214
0.48485
0.45021
0.46448
0.56202
0.54723
0.54457
0.56568
0.54491
0.51528
0.4849
0.50026
0.48739
0.48007
0.44578
0.45716
0.50236
0.46648
0.52137
0.52056
0.48695
0.47609
0.45066
0.4299
0.41062
0.42665
0.41831
0.39629
0.38406
0.36341
0.34709
0.35337
0.3667
0.36301
0.35851
0.34255
0.38308
0.3725
0.37339
0.44851
0.4579
0.54591
0.51156
0.48752
0.49341
0.48924
0.46715
0.43735
0.44218
0.41846
0.38857
0.36081
0.39575
0.41534
0.4046
0.41785
0.398
0.39921
0.3957
0.40315
0.37828
0.36948
0.39701
0.39651
0.38962
0.36572
0.35745
0.36049
0.38081
0.40147
0.37922
0.39606
0.3717
0.35979
0.35088
0.32832
0.30487
0.36309
0.37644
0.37384
0.40678
0.38915
0.36885
0.35322
0.33263
0.32745
0.3487
0.33451
0.31597
0.30697
0.28862
0.30765
0.32888
0.34754
0.32271
0.41573
0.40211
0.39732
0.39251
0.39519
0.39946
0.377
0.36935
0.41404
0.44125
0.41081
0.39289
0.3834
0.38209
0.35801
0.37672
0.3941
0.41952
0.39098
0.3977
0.38501
0.36786
0.37194
0.35788
0.33231
0.38215
0.36164
0.37081
0.34825
0.32623
0.32614
0.31856
0.30081
0.33861
0.32728
0.32676
0.31342
0.29532
0.29172
0.27874
0.31312
0.40611
0.42567
0.40063
0.39201
0.37829
0.37806
0.36641
0.34167
0.41655
0.39858
0.38583
0.36648
0.3578
0.34832
0.38915
0.37136
