atr
0.0
3e-05
7e-05
0.00011
0.00016
0.00021
0.00026
0.0003
0.00031
0.00037
0.0004
0.00044
0.00053
0.00059
0.00067
0.00072
0.00074
0.00077
0.00084
0.00084
0.00088
0.0009
0.00091
0.00089
0.00089
0.0009
0.00087
0.00087
0.00083
0.00083
0.00085
0.00082
0.00081
0.00079
0.00081
0.00084
0.00089
0.00098
0.00105
0.00102
0.00111
0.00112
0.00114
0.0012
0.00129
0.00133
0.00138
0.00138
0.00133
0.00131
0.00137
0.00137
0.00155
0.00203
0.00226
0.00269
0.00286
0.00297
0.003
0.003
0.00302
0.0031
0.00307
0.00303
0.00297
0.0031
0.00307
0.00311
0.00302
0.00306
0.00297
0.00284
0.00273
0.00263
0.00254
0.00245
0.0024
0.0023
0.00224
0.00224
0.00217
0.00207
0.002
0.00192
0.00193
0.002
0.0022
0.0022
0.00215
0.00229
0.00233
0.00232
0.00238
0.0024
0.00236
0.00234
0.00241
0.00248
0.00238
0.00231
0.00242
0.00244
0.0024
0.00237
0.0023
0.00219
0.00213
0.00211
0.00205
0.00205
0.00211
0.00216
0.00211
0.00212
0.00215
0.00228
0.0023
0.00227
0.00221
0.0021
0.00199
0.0019
0.00184
0.0018
0.00171
0.00162
0.00154
0.00151
0.00151
0.00149
0.00143
0.00135
0.00131
0.00133
0.00133
0.00136
0.00148
0.00151
0.00148
0.00166
0.00175
0.00187
0.00216
0.00241
0.00247
0.00241
0.00237
0.00232
0.00235
0.00225
0.0022
0.00214
0.00212
0.00207
0.00202
0.00194
0.00185
0.00181
0.00179
0.00182
0.00188
0.00203
0.0021
0.00215
0.00217
0.00217
0.0022
0.00224
0.00223
0.00217
0.00208
0.00202
0.00196
0.00193
0.00187
0.00177
0.00171
0.00166
0.00159
0.00154
0.00148
0.00141
0.00138
0.00143
0.00152
0.00155
0.0016
0.0017
0.00172
0.00174
0.00175
0.00172
0.00168
0.00164
0.00158
0.00151
0.00148
0.00141
0.00136
0.0013
0.00126
0.00126
0.00121
0.00119
0.00115
0.00112
0.00115
0.00116
0.00123
0.00135
0.00133
0.00135
0.0014
0.00147
0.00155
0.00161
0.00155
0.00156
0.00155
0.00151
0.00146
0.0014
0.00135
0.00129
0.00127
0.00123
0.00118
0.00114
0.00111
0.00107
0.00104
0.00109
0.00111
0.00118
0.00119
0.00122
0.00118
0.00123
0.00123
0.00126
0.00126
0.00123
0.0012
0.0012
0.00114
0.0011
0.00109
0.00106
0.00101
0.00101
0.00102
0.00101
0.00102
0.00098
0.00094
0.0009
0.00088
0.00086
0.00088
0.00093
0.00101
0.00103
0.00112
0.00121
0.00128
0.0013
0.00136
0.00134
0.00128
0.00126
0.00123
0.00122
0.00119
0.00115
0.00111
0.00107
0.00104
0.00102
0.00098
0.00093
0.0009
0.00089
0.00092
0.00109
0.00109
0.0011
0.0011
0.00112
0.00119
0.00125
0.00129
0.00132
0.00129
0.00124
0.0012
0.00114
0.0011
0.00106
0.00101
0.00101
0.00101
0.00098
0.00094
0.00094
0.00095
0.00095
0.00095
0.00099
0.00102
0.00106
0.00105
0.00106
0.00111
0.00117
0.00118
0.00119
0.00116
0.00112
0.00111
0.00113
0.0011
0.00108
0.00107
0.00109
0.00108
0.00107
0.00104
0.00102
0.00101
0.00099
0.00099
0.00112
0.00113
0.00117
0.00119
0.00118
0.00116
0.00118
0.00122
0.0012
0.00119
0.00116
0.00124
0.0012
0.00118
0.00116
0.00113
0.00112
0.00107
0.00104
0.00101
0.00102
0.00102
0.001
0.00107
0.00106
0.0011
0.00109
0.00117
0.00116
0.00119
0.00117
0.00125
0.00124
0.0012
0.00118
0.00113
0.00108
0.00107
0.00101
0.00097
0.00094
0.00093
0.00093
0.00093
0.00091
0.00088
0.00084
0.00079
0.00077
0.00076
0.00079
0.00083
0.00086
0.00097
0.00099
0.00098
0.00101
0.0012
0.00151
0.0016
0.00161
0.00154
0.0015
0.00147
0.00141
0.00135
0.00131
0.00126
0.00123
0.00119
0.00115
0.00115
0.0011
0.00107
0.00106
0.00121
0.00127
0.00129
0.00133
0.00134
0.00143
0.00151
0.00159
0.0016
0.00156
0.00155
0.00151
0.00148
0.00143
0.0014
0.00136
0.00131
0.00129
0.00127
0.00122
0.00118
0.00118
0.00117
0.00123
0.00135
0.00138
0.00137
0.0014
0.00141
0.00149
0.00156
0.00167
0.00164
0.00164
0.00157
0.00156
0.00153
0.00151
0.00144
0.00137
0.00134
0.00129
0.00125
0.0012
0.00115
0.00113
0.00114
0.00116
0.00122
0.0013
0.0013
0.00128
0.00133
0.00129
0.00127
0.00126
0.00123
0.00121
0.00116
0.00112
0.00106
0.00103
0.00102
0.00097
0.00094
0.0009
0.00087
0.00088
0.00083
0.00081
0.00079
0.00081
0.00084
0.0009
0.00091
0.00089
0.00091
0.00098
0.00102
0.00106
0.00112
0.00109
0.00106
0.00104
0.00101
0.00098
0.00093
0.00089
0.00087
0.00086
0.00087
0.00087
0.00085
0.00085
0.00083
0.00081
0.0008
0.00084
0.00087
0.00092
0.00096
0.00093
0.00091
0.00099
0.00104
0.00109
0.00136
0.00142
0.00141
0.00138
0.00135
0.0014
0.00136
0.00134
0.00131
0.00129
