atr
0.0
70.70929
117.91219
150.41847
189.54929
228.99505
249.28327
269.45875
318.16241
324.54081
352.35575
362.69177
375.9295
375.07739
414.76258
432.50525
505.35416
525.14672
523.64838
543.40278
547.13687
550.69781
556.22225
571.45923
576.67072
565.76924
559.04215
543.73485
553.08308
558.555
558.5725
553.38089
602.7844
615.08551
611.79226
612.49782
655.90297
712.7449
727.05955
723.26958
721.24176
714.34306
699.03284
720.33692
721.83072
724.43995
733.89853
736.29792
776.29378
785.74851
799.86147
859.31208
855.18693
841.50358
826.57547
802.96293
821.87772
884.61074
879.64069
859.69207
844.80621
855.07505
891.44683
898.01063
886.28916
937.8385
947.86004
937.13789
925.27019
904.51374
874.96562
859.7495
931.43168
914.90085
907.73079
881.33002
876.07002
855.45359
829.14976
808.21835
827.76561
813.45592
787.47907
762.84699
773.04935
787.18797
787.51026
792.71381
806.2664
814.20594
801.77123
822.33043
807.64682
786.17419
781.18175
766.86163
746.39508
720.34186
701.16101
691.91094
692.65445
678.11627
654.32797
643.30454
634.13922
624.55713
603.65376
618.46635
623.10375
616.05277
605.93257
622.37882
634.70819
626.02975
612.90834
605.66346
595.14249
605.2216
584.4922
573.44276
568.75613
585.13712
576.70661
563.45471
548.07509
544.8783
566.78699
583.28078
596.27001
592.07501
580.24179
569.97381
553.95996
594.34497
584.2439
597.28862
586.29729
595.66963
576.70822
580.06335
569.53954
585.83886
613.21751
629.51698
627.21791
661.87234
655.5486
644.33084
631.23578
642.8318
661.6531
658.24359
661.22405
656.09162
657.94222
643.08849
654.33002
686.91716
686.3038
681.92424
651.07251
629.07019
633.80446
642.84557
627.07088
625.13725
637.82673
645.91554
726.83157
714.10003
709.34503
698.36038
700.04321
700.82584
685.14899
700.06907
678.50842
664.32925
643.78859
647.65583
683.65398
665.0837
664.92486
659.43023
648.13807
631.82892
617.79471
611.62581
613.43468
621.13077
606.765
633.42965
684.24396
733.71725
752.15673
734.48125
731.10473
718.57153
708.77928
708.33648
739.44744
737.2762
718.8279
713.71733
748.02252
740.18806
725.67677
743.55128
742.86905
727.94983
732.51984
741.40843
796.67997
793.25854
818.74007
831.32864
827.45802
816.46674
821.2984
803.79208
791.70693
789.59572
789.77246
791.98228
770.88141
801.42916
805.86779
801.37724
796.02601
794.59701
826.13008
816.40221
813.8192
837.85568
851.10314
864.59577
850.31821
831.57263
811.16315
846.34721
858.48956
827.21673
803.44911
801.9256
810.3502
790.71876
777.44027
781.62097
762.10661
782.01186
778.04529
769.98063
817.0113
821.82121
839.56326
827.37732
818.68537
802.90712
805.16804
804.7989
812.16041
797.45752
765.23341
781.5946
770.43855
755.5008
735.89503
729.15467
711.39076
701.21571
696.53459
684.12712
661.06161
785.49935
785.03583
819.49541
808.06359
777.94619
753.1379
732.59305
735.14354
716.47543
716.78219
750.74489
777.94311
761.20217
734.68916
741.12494
726.48887
705.32466
695.80719
682.27953
660.79171
648.81801
639.62458
638.29569
627.88385
642.65143
671.77705
653.01011
659.77153
656.19571
657.89602
665.65987
653.78488
654.94239
637.46508
636.44614
636.19285
632.96836
715.12919
750.6421
770.16053
736.10692
713.65999
732.29571
745.07744
759.3162
815.04861
817.54514
1009.14906
1000.09913
977.83205
1010.22833
994.95416
1008.83958
1005.52889
1007.32826
996.31195
966.40824
936.69623
920.44435
897.65833
899.30988
916.14488
1006.45168
1027.21084
991.52221
976.05563
953.56451
946.24919
999.00067
977.8792
978.69283
958.12048
940.94116
932.32894
939.63973
936.84475
907.28941
877.73802
861.49673
864.30625
843.75795
831.22524
826.00772
805.2886
790.21156
795.77216
805.407
781.81079
772.68645
771.16527
749.00132
751.56266
733.03961
726.42464
705.22931
765.19721
755.88884
746.8975
785.68625
779.22223
768.4085
781.08289
786.73911
766.06703
856.61796
857.72668
841.02906
861.68127
850.53761
842.55135
843.26268
823.66677
792.83343
768.50462
754.765
738.92179
716.14095
722.64945
715.8052
703.16126
684.28903
683.95552
678.01584
659.004
650.31443
742.2484
767.28923
741.52571
782.13316
813.16365
817.62767
799.2407
779.53565
772.58239
818.74864
813.86946
795.95021
781.93019
770.83804
772.05389
753.63147
748.47922
771.32856
766.93867
755.39305
732.2814
717.89916
725.68922
733.52856
728.62366
717.2534
691.12602
685.39273
659.76539
710.21643
692.06312
668.69004
660.25575
674.33391
654.49649
643.30531
626.10993
613.76994
592.2228
578.02545
555.94078
544.53072
528.59639
514.50093
525.80301
528.90208
581.79336
584.05455
591.74851
577.93361
556.50978
543.23123
525.13186
576.91887
565.1218
555.42382
555.68712
571.54447
557.36057
567.54911
562.24917
599.20566
583.97168
595.52085
585.16722
580.9017
668.68658
676.52254
665.27093
647.818
685.19172
659.15017
649.61801
650.71673
628.64339
604.75386
584.27573
577.10032
580.48815
580.609
586.3055
617.96011
605.67724
606.44387
611.55859
599.54298
589.92419
571.09747
554.34693
558.20001
544.96144
588.08776
589.29578
611.70608
631.79779
622.43652
603.92891
632.49184
632.95386
645.53644
674.68384
756.49285
756.48121
774.50899
777.12549
791.78224
794.82422
788.55463
758.11073
755.58425
798.73538
799.30071
811.56137
800.80841
778.1121
753.59338
752.92171
774.32444
749.67198
740.58684
718.87278
733.95258
707.67097
690.60304
692.44497
697.37461
688.23786
678.19444
666.61341
695.64316
722.85508
692.499
694.32693
688.52572
675.88746
720.46692
740.92786
755.71801
729.00101
717.27594
690.61551
677.15941
688.18945
673.31806
671.06748
672.60266
683.78676
711.38342
725.1746
783.47499
778.2232
869.06369
856.12128
859.25548
870.76437
883.92406
873.84448
855.22345
845.19749
830.0541
837.19309
826.94073
813.23067
794.26205
810.85619
893.63504
940.47468
946.14149
942.96567
957.75383
939.96284
946.53693
927.51857
924.12439
903.70122
920.67328
914.03161
923.30578
884.7368
879.67488
890.19668
869.63763
835.95994
806.31495
834.43816
822.13115
791.60107
764.41385
772.67
769.96286
757.38409
731.25951
702.74026
736.2181
712.78823
694.03907
664.86128
652.8819
652.64034
637.68103
647.95096
661.57517
643.86623
625.83222
601.02063
599.27987
605.07559
585.15734
568.6811
564.10388
541.56789
533.80375
531.6242
539.57747
556.82551
543.46154
543.25
595.21286
583.57408
579.74736
558.26541
534.05574
569.1489
570.01398
580.01298
583.44062
574.82915
560.2085
550.4436
542.83692
525.73214
523.04627
523.85654
509.51036
511.22819
510.3026
495.91956
511.13031
505.66671
493.99409
510.21523
507.61985
508.68201
532.40686
545.96137
540.34199
541.10685
549.27993
536.65993
550.02422
548.03678
534.89844
516.54069
509.28207
514.06764
538.53638
557.81449
612.11417
658.28173
652.12804
640.56103
638.64739
620.97258
600.64668
623.03977
626.75122
633.31042
620.92896
616.07617
617.10788
607.41946
594.12235
586.32004
570.42432
554.8883
534.89485
516.28665
534.2526
519.1967
537.21908
522.71915
519.18778
559.27722
570.04314
558.56363
543.85765
536.86711
525.1066
519.62756
507.86844
488.11284
482.37978
473.63837
490.28063
476.53344
462.85248
446.81016
442.27729
428.55677
417.64129
412.47262
404.64029
387.80884
442.17393
574.86293
641.40487
636.06523
650.18629
639.91441
643.13124
651.05615
634.08285
649.06336
664.53884
644.85963
628.78109
663.43815
670.22471
664.45509
649.26901
628.26408
620.47736
603.52184
581.45171
555.89944
559.80591
541.9162
529.87362
523.25193
552.01965
550.76182
545.30312
547.85218
534.85274
525.20183
510.31813
497.31683
497.56349
500.11538
527.87214
515.42199
507.99256
499.70666
501.8719
492.43391
488.03363
