atr
0.0
0.03143
0.04847
0.07215
0.08485
0.09308
0.105
0.11322
0.12584
0.13471
0.14509
0.15473
0.18153
0.19356
0.19902
0.19909
0.23273
0.23539
0.23786
0.25373
0.25489
0.2474
0.2533
0.25306
0.27142
0.27489
0.27811
0.27896
0.26975
0.26405
0.25948
0.26094
0.26016
0.25158
0.24932
0.24151
0.24283
0.24406
0.23948
0.24166
0.24726
0.24746
0.24192
0.2375
0.22982
0.22126
0.22117
0.21823
0.22907
0.23128
0.23119
0.23325
0.22444
0.21627
0.21296
0.21275
0.20541
0.2036
0.20834
0.22775
0.24005
0.23719
0.23668
0.25334
0.26453
0.25635
0.24661
0.24328
0.23733
0.22967
0.22183
0.2167
0.21979
0.22338
0.21814
0.22327
0.22018
0.22731
0.22893
0.22544
0.22933
0.21795
0.22239
0.24221
0.23491
0.23456
0.24352
0.24756
0.2413
0.23978
0.23123
0.22185
0.21958
0.21389
0.20504
0.21254
0.20522
0.21841
0.21567
0.22884
0.22749
0.2241
0.22238
0.21864
0.23802
0.24102
0.24452
0.24562
0.24308
0.25857
0.25867
0.25663
0.25401
0.25087
0.24652
0.25748
0.24766
0.2364
0.23951
0.25312
0.26147
0.27494
0.2753
0.26778
0.26865
0.27017
0.26588
0.2576
0.24634
0.27375
0.27348
0.27109
0.27244
0.26941
0.28516
0.28122
0.28114
0.27034
0.25889
0.24968
0.24328
0.23876
0.2317
0.23587
0.24045
0.2297
0.22401
0.22086
0.21437
0.21906
0.21484
0.2095
0.20239
0.20222
0.19635
0.19518
0.19409
0.19023
0.1895
0.22025
0.24523
0.26057
0.2541
0.24667
0.23976
0.22764
0.23352
0.25541
0.25431
0.26757
0.26489
0.27311
0.27146
0.26421
0.25748
0.24909
0.24344
0.23891
0.23328
0.25233
0.25502
0.27109
0.3053
0.3442
0.34962
0.33964
0.32681
0.31918
0.31924
0.33144
0.38991
0.39777
0.40293
0.41201
0.41329
0.4302
0.46519
0.46339
0.44457
0.4271
0.42517
0.4098
0.4041
0.40381
0.44782
0.46583
0.47684
0.49421
0.4932
0.4744
0.4748
0.46231
0.445
0.43036
0.41819
0.41546
0.41865
0.41303
0.40281
0.3869
0.37855
0.36365
0.35053
0.33907
0.32556
0.34802
0.34459
0.34141
0.34845
0.34213
0.37698
0.38291
0.37199
0.36042
0.35467
0.35148
0.34352
0.33112
0.32819
0.3276
0.31849
0.30931
0.29793
0.28379
0.28281
0.27618
0.27002
0.27859
0.26941
0.26731
0.2625
0.25446
0.24843
0.24926
0.25717
0.2538
0.26924
0.29787
0.30088
0.29367
0.29627
0.3101
0.30581
0.30397
0.33726
0.34174
0.33518
0.33767
0.32784
0.35085
0.35365
0.3541
0.34238
0.63371
0.72844
0.77284
0.79978
0.80194
0.77751
0.76555
0.74087
0.72581
0.6961
0.71853
0.71649
0.7096
0.83248
0.84102
0.91859
1.08219
1.10553
1.09657
1.11124
1.08565
1.10225
1.11637
1.09906
1.0627
1.03415
1.01478
1.02587
1.03831
1.05978
1.04694
1.00752
1.00184
1.00835
0.98568
0.95099
0.91163
0.89152
0.84998
0.82427
0.78896
0.75761
0.72564
0.69095
0.65731
0.62322
0.61299
0.59992
0.59135
0.57268
0.5532
0.54012
0.53011
0.50653
0.49821
0.47619
0.45861
0.43799
0.42314
0.40648
0.40031
0.40993
0.39943
0.38483
0.37198
0.3547
0.34579
0.33038
0.33107
0.3267
0.32265
0.31818
0.33259
0.31955
0.33101
0.31808
0.31036
0.29962
0.28965
0.28253
0.26949
0.26167
0.26655
0.32823
0.38335
0.37097
0.36733
0.35824
0.34408
0.33307
0.31714
0.33148
0.34516
0.34937
0.34748
0.34188
0.36696
0.36318
0.38716
0.42472
0.44331
0.43986
0.43916
0.42565
0.41031
0.41865
0.41082
0.40019
0.39075
0.38376
0.37521
0.39277
0.38764
0.38295
0.3706
0.35413
0.3374
0.3383
0.33914
0.34241
0.33296
0.31989
0.32061
0.33907
0.34435
0.34118
0.33752
0.32842
0.32067
0.31205
0.30262
0.296
0.28843
0.28283
0.28263
0.27101
0.25951
0.2474
0.23616
0.24286
0.24052
0.24476
0.24707
0.24585
0.24829
0.24198
0.2352
0.26311
0.25789
0.25875
0.26027
0.25318
0.24652
0.2382
0.2319
0.22462
0.22644
0.21883
0.21606
0.2092
0.21211
0.21125
0.20259
0.20097
0.1959
0.19834
0.19346
0.20607
0.21135
0.21197
0.22897
0.24976
0.24906
0.24913
0.30705
0.3344
0.36266
0.36532
0.3528
0.34046
0.35685
0.35922
0.35642
0.36453
0.35278
0.33615
0.33286
0.32265
0.31032
0.30601
0.34273
0.35182
0.35812
0.40111
0.39531
0.41565
0.43453
0.42206
0.4462
0.43147
0.4878
0.48653
0.54035
0.57246
0.58372
0.56559
0.54734
0.53396
0.51724
0.49958
0.48819
0.48046
0.48614
0.47499
0.46106
0.45455
0.43494
0.43673
0.4234
0.41887
0.40252
0.38663
0.38258
0.37597
0.37626
0.36224
0.36779
0.38224
0.38065
0.36274
0.35255
0.34165
0.32582
0.32183
0.30742
0.29617
0.29359
0.28333
0.28309
0.28716
0.28736
0.28898
0.29905
0.30269
0.29821
0.3012
0.29825
0.29338
0.29957
0.29531
0.29422
0.30606
0.31563
0.31665
0.32475
0.31512
0.30547
0.30365
0.29982
0.28841
0.27709
0.26944
0.26877
0.26743
0.26118
0.26324
0.32015
0.36086
0.35579
0.35109
0.34744
0.34191
0.33106
0.31813
0.31541
0.30859
0.30155
0.29287
0.29195
0.28895
0.2826
0.28027
0.28168
0.2737
0.26772
0.2586
0.26513
0.26905
0.26483
0.25734
0.26825
0.26766
0.26211
0.26053
0.25478
0.25087
0.24438
0.24121
0.23255
0.23094
0.22587
0.21902
0.21981
0.22054
0.21693
0.21143
0.2099
0.20276
0.19685
0.19565
0.19953
0.19956
0.21531
0.21779
0.21152
0.21784
0.21799
0.21171
0.21158
0.20147
0.1978
0.19295
0.18631
0.17872
0.17381
0.16782
0.16298
0.16062
0.15772
0.15217
0.14987
0.15131
0.14836
0.14562
0.14236
0.13862
0.13372
0.13417
0.1303
0.13599
0.13271
0.12823
0.12693
0.125
0.12607
0.13207
0.13621
0.14933
0.15367
0.16698
0.17434
0.18331
0.1795
0.17454
0.17564
0.1831
0.18288
0.18339
0.18243
0.17868
0.17949
0.18096
0.17875
0.19098
0.18948
0.18452
0.18634
0.18231
0.17358
0.16904
0.16482
0.16019
0.15303
0.19424
0.20966
0.20539
0.20787
0.22373
0.22418
0.21602
0.21131
0.20264
0.2046
0.1957
0.18958
0.19104
0.18453
0.18564
0.17738
0.17685
0.17136
0.19626
0.21653
0.21035
0.2089
0.20755
0.20201
0.19829
0.19556
0.18945
0.18091
0.17156
0.16288
0.16196
0.15682
0.15276
0.15328
0.15304
0.15926
0.15645
0.15671
0.15194
0.14894
0.14402
0.14802
0.14745
0.14477
0.16014
0.16299
0.15921
0.15926
0.15503
0.15039
0.15321
0.1537
0.14915
0.14564
0.15381
0.15568
0.15956
0.15816
0.15472
0.1551
0.15759
0.15776
0.15364
0.15338
0.15885
0.15679
0.15202
0.14759
0.14419
0.14532
0.14494
0.15102
0.15023
0.15021
0.1452
0.1434
0.13958
0.13961
0.14178
0.14237
0.15934
0.16153
0.16428
0.16469
0.16507
0.16756
0.16488
0.16168
0.1587
0.15451
0.1499
0.14348
0.13966
0.13682
0.13419
0.12961
0.12892
0.14471
