atr
0.0
30.08357
45.48189
66.9489
82.64683
101.24134
111.00268
114.5682
124.83333
132.56023
139.66665
148.01188
149.45389
189.24219
199.51132
202.72336
214.40098
216.09091
215.53799
228.92742
240.7476
236.32349
237.6461
269.52852
301.71862
307.78229
305.08284
313.90978
303.96337
299.3867
289.43551
280.11797
273.31526
273.00703
269.44938
269.48514
270.36906
273.12841
268.80567
265.75741
264.32688
337.23139
358.49986
349.74844
356.00141
391.51702
399.26581
402.60396
405.32582
409.77684
402.11349
406.40538
420.94
401.49071
392.40066
383.70347
391.36822
380.15764
372.28566
369.02169
369.16585
379.36758
441.55561
474.94306
529.27499
584.06535
580.55139
578.41344
574.06533
576.6321
560.61623
560.27864
575.73017
565.58516
548.79193
536.24465
514.47575
497.30605
477.62276
473.02614
483.8057
502.36243
502.96083
491.61649
485.42959
489.85391
512.86863
512.32158
509.64719
491.10096
501.5216
524.9922
535.29919
539.00925
533.1643
514.88899
502.27192
495.91179
491.90523
478.532
469.83828
481.09555
467.1073
468.53535
512.21139
507.02415
532.15814
522.62542
597.37789
765.05089
767.54726
777.50317
765.41937
739.38156
733.93502
723.95109
713.30173
690.47875
668.80026
666.09453
677.96706
686.48299
676.71135
663.00411
650.00238
641.29793
637.79308
632.08857
614.00439
624.51622
624.30006
614.05434
622.4776
643.55492
692.51385
683.13286
700.76623
672.79435
653.05404
632.0959
618.00833
607.00774
626.16861
606.98014
601.08299
582.85563
587.90094
563.69231
538.19
539.49
521.44857
553.34296
609.9856
630.34377
614.34993
603.45494
617.0653
637.36706
631.48227
641.74425
630.07109
607.3003
594.07599
583.69128
613.1669
601.76284
575.11692
559.80643
565.2974
557.6133
543.23735
546.50611
525.4021
513.36052
513.10977
500.33407
503.08735
497.79826
493.78838
498.59635
489.67947
494.88165
478.69868
466.63806
465.51605
447.94633
445.32874
440.11312
433.43289
424.84269
409.95464
404.03002
403.1743
415.28328
434.81876
446.72099
496.95521
510.40555
498.9473
488.64249
483.02088
505.73011
504.0351
504.22473
501.63368
514.54556
502.82588
507.72189
494.63532
493.94709
485.91944
473.35948
536.07452
572.27491
560.52098
564.15449
578.49631
577.95943
573.96233
610.82216
594.48986
583.92559
564.47305
559.08211
559.95411
545.17238
533.36007
552.00292
545.05057
575.13196
582.02682
568.80847
566.48144
554.16562
541.13522
538.68913
550.69991
539.9692
520.59783
513.76941
540.16803
531.50603
530.6356
519.87591
517.93335
558.93453
561.54993
543.24922
531.23142
546.47917
548.15923
533.68357
532.70046
537.43685
573.98494
577.5703
581.41671
578.57694
569.63359
581.4319
662.82962
686.73179
665.53667
661.59762
663.91922
648.23427
622.04397
594.3344
576.63551
624.96226
633.88353
653.79613
667.00355
675.27544
681.01077
686.07714
672.72949
655.41238
707.04435
703.44119
727.99896
708.99903
684.10767
660.36998
676.96713
687.32019
670.15375
643.16348
640.1718
655.61167
641.45441
612.57338
603.956
583.20057
583.57481
575.17518
560.54267
557.95462
557.68429
560.52899
562.55906
555.23341
543.09745
566.43478
559.78729
533.55677
586.08343
631.39247
618.65158
596.7829
574.25912
564.81918
557.33138
550.22628
670.72298
665.95062
658.17844
655.36998
634.41498
624.86819
625.01832
625.75559
620.3459
600.62548
586.40152
625.83712
627.56304
618.32925
683.52645
693.65742
667.92046
652.369
733.82336
809.02454
775.82922
784.72356
770.78045
741.43899
732.47478
707.42801
701.73029
698.54384
681.77428
662.53469
659.22221
631.03348
611.68752
591.75484
635.70664
631.65616
623.68858
613.9544
608.17622
604.39149
611.4621
587.62267
582.77962
586.28179
575.74523
562.29986
571.57773
569.28289
555.1384
538.2778
526.01081
514.42861
500.05942
503.01661
509.20328
517.1909
519.28727
509.71889
493.51183
509.78241
497.87009
507.1858
495.3011
479.92245
459.86156
471.33145
548.84278
609.22758
616.02632
611.47587
643.88902
639.24766
621.22569
604.73385
591.53715
569.87378
552.87137
579.12341
606.25817
674.70973
690.55975
702.40191
716.5632
815.28369
800.53057
779.0641
789.54023
760.2995
730.9924
737.06222
719.41492
723.41243
708.01725
677.47745
667.26978
654.49193
625.46751
671.90126
664.18188
636.13604
628.0156
607.83449
623.76131
625.49693
606.26144
582.39348
577.57966
622.65325
675.60588
661.41974
676.24548
659.6208
651.59646
669.39671
660.29694
656.15502
638.01466
627.51361
610.73264
601.17674
575.36769
552.00642
533.46525
535.54345
533.3782
520.61404
504.47018
493.1166
479.32256
461.6788
485.48746
590.41621
640.6672
637.53311
634.9036
620.57406
603.15663
593.07401
606.53444
598.77484
601.30949
582.29238
575.19864
611.25588
661.77975
668.98834
662.63488
641.13168
658.36799
671.88956
699.59888
704.92824
703.28408
781.64593
786.76265
796.18818
883.03188
954.81532
990.69279
986.32974
966.8069
964.24783
955.15442
944.25553
928.34371
912.58201
911.6833
882.43521
854.66698
831.29576
804.03892
775.50471
773.33652
775.56177
748.20093
735.92872
716.26167
685.68798
673.95241
725.06295
768.76345
802.33821
844.31905
842.36697
831.22433
822.9226
802.86027
806.74596
785.94411
749.49024
754.31237
727.84649
695.15102
662.26166
654.03583
635.03899
614.49977
598.78693
575.37358
591.61261
600.51885
709.47108
690.46314
677.69077
666.06501
678.46322
678.73585
659.12543
634.15647
619.07386
596.82145
592.50277
580.29329
568.73734
559.62396
535.61939
529.71658
505.88611
499.03138
485.57271
485.86181
477.60668
463.43906
490.60841
480.83638
505.62378
544.11994
540.8378
543.12224
557.52923
580.98571
565.67959
563.87248
570.62587
572.84831
575.96986
553.38058
528.88625
575.25152
566.39784
554.06157
543.91788
532.47232
520.7993
503.59935
535.43797
520.10025
498.85738
491.51257
492.93024
482.64379
506.05138
496.33342
495.23175
482.53948
513.64381
502.05425
502.12895
487.80402
509.75588
503.9576
484.73206
482.08691
476.79427
460.90183
445.58384
452.24785
442.55729
438.29177
431.21093
449.43086
435.49294
436.91345
433.39177
445.07665
447.80903
446.19553
483.8637
514.85772
514.31789
501.86661
497.16685
493.6835
573.03683
608.90562
597.31951
600.80383
584.76784
566.81157
571.2386
599.93941
599.32303
582.74638
616.61735
712.1404
705.58466
713.34218
709.54131
717.56265
696.6796
699.7682
692.79904
680.36125
659.30402
636.86588
666.23189
692.02604
669.76346
649.21893
639.70115
640.91607
659.43349
633.10181
630.95097
624.11947
610.37165
605.95939
587.67658
667.98254
682.42378
661.0628
638.70688
623.31925
641.01073
626.09639
617.84308
589.23929
581.62005
784.59148
867.37923
919.35857
924.7301
894.59152
864.9107
896.35922
892.51071
860.47137
821.00913
783.66919
791.76568
774.45099
791.62377
775.75565
761.23024
746.40165
736.94368
743.31127
736.67333
708.49594
755.44338
750.05528
725.00419
711.12389
713.24004
694.02218
668.10917
641.1228
621.05545
622.37078
601.27072
577.82853
561.24078
554.46929
544.19791
539.54092
520.98871
529.8838
519.17782
528.22583
524.06613
509.74212
541.04625
574.91938
554.96514
547.82763
541.34994
517.71923
504.59643
498.19311
482.16218
479.79273
475.53897
480.21261
466.706
481.227
468.35721
459.62027
449.20953
438.56385
424.20572
454.21674
442.22983
463.2877
474.70358
489.16904
501.80411
508.8181
500.76038
500.70606
494.71135
489.92625
472.47795
478.38952
489.5467
477.37193
475.40751
480.37412
484.79025
550.70809
577.30037
631.20606
615.82991
618.26706
685.95727
694.64318
672.77867
652.39305
653.42712
648.89661
627.39328
632.37304
602.42783
598.71584
581.92328
562.42804
603.69247
623.98158
614.28932
604.7958
583.70396
597.31939
