atr
0.0
2.195
4.4525
6.17375
7.49562
8.56737
9.63041
11.0411
14.89388
16.04003
17.37717
18.05737
19.0147
25.08508
26.01257
28.13168
30.35798
30.26884
30.73107
31.03599
30.87985
30.53843
31.01926
30.70074
30.68354
30.68186
30.17101
29.3888
28.61031
30.71315
31.97364
31.18838
32.31492
31.88171
31.65516
31.75551
34.01869
34.13592
36.33764
45.95781
52.0344
53.01908
53.17772
52.8086
52.60798
54.69027
55.45311
53.43431
52.63829
51.52627
49.79082
47.41791
45.68948
44.58738
43.36471
41.82937
41.09727
43.26247
42.48444
41.82698
40.50148
40.06066
38.9849
37.56169
37.30728
36.12391
35.18291
34.2327
33.75894
32.47473
31.81511
32.86617
33.05002
32.68144
32.58348
31.81752
30.7627
30.24393
29.68651
29.01104
27.96597
26.77054
26.20908
26.19914
26.88349
26.30538
25.71214
25.44413
24.56598
31.56127
34.29475
34.63084
34.19149
33.7221
32.93195
32.60752
31.70556
30.79016
29.93301
29.13565
28.30025
30.82594
31.26337
31.23313
30.7772
35.07882
36.20462
34.88715
34.88735
34.67683
34.86205
35.72905
35.45912
34.48061
33.17342
32.62246
32.06229
41.41284
44.42121
43.86041
42.91038
41.62678
41.06987
39.72416
38.10887
37.80823
44.18193
45.58751
44.1334
42.79387
42.48431
42.304
44.94586
45.01758
44.23418
46.26888
46.98111
44.99174
44.35019
43.7916
43.8122
42.77205
41.74404
45.18233
45.69787
44.33017
44.92016
44.40157
43.14432
42.34472
42.99724
42.33173
41.98089
42.32654
41.73893
41.39329
41.0752
40.64126
40.45688
39.6521
38.66053
37.87692
37.23142
37.57204
38.6026
37.9217
37.16158
36.5379
36.44019
36.48732
36.3168
36.28917
38.43494
37.71102
36.76237
36.33578
38.33393
37.60722
36.58099
36.03949
36.75096
45.57946
46.77664
46.9576
47.20348
45.89395
45.02081
44.04218
43.64774
41.97361
42.0755
41.30582
41.84041
41.1068
41.46775
39.96648
39.11245
38.23799
38.4567
37.68479
36.00945
34.7802
36.74948
37.52451
37.7249
38.84027
44.95739
51.45329
51.32663
50.44973
49.29475
48.77369
47.89343
46.10176
45.46734
43.82753
42.86414
41.33099
41.01377
39.72922
43.9957
43.91744
42.68762
42.41993
42.70994
41.32851
40.68791
41.07591
40.6712
40.46326
39.71803
41.52031
41.566
40.16558
38.58661
37.44399
36.62442
35.79339
35.50386
39.50859
38.70726
37.4646
36.29213
35.9634
35.19887
33.97967
32.66755
32.08844
30.79998
34.43855
34.44151
33.87498
33.48176
33.11949
33.01382
31.57212
32.44411
31.61881
31.33104
30.85525
29.77202
28.85545
28.63363
29.08694
29.71716
31.20308
30.39714
29.48592
29.19907
28.87056
28.35767
28.06283
27.71549
27.25867
26.53733
26.03967
26.23255
36.00165
35.60725
34.45887
33.5011
32.10102
30.81452
34.14919
33.14139
34.51201
36.78972
36.51903
37.89695
37.7536
36.18763
34.95066
33.91061
32.84699
33.81864
33.20945
32.68235
31.69646
32.17172
32.08802
34.49745
34.9612
34.47683
34.81777
33.49865
32.55588
33.68046
37.65615
38.82999
37.92071
37.52994
36.49209
35.50123
35.40542
34.59718
33.51452
35.94849
35.19859
34.32155
33.0693
32.93721
31.59026
31.56167
38.27798
38.23884
38.02035
38.22818
37.72688
37.00996
38.36568
36.95599
36.29628
34.96011
35.58796
35.00739
33.79758
32.92847
32.42572
31.21388
30.64432
30.20544
28.83577
28.16678
27.3213
27.6862
28.55433
28.59617
29.1643
29.6247
29.53365
29.08554
30.65086
30.52294
29.78201
31.87401
31.92087
32.80223
32.74993
32.39994
31.89708
32.56372
31.3656
30.99306
29.83569
28.75243
28.08297
30.07776
34.60578
34.88394
37.39365
38.49054
37.9055
37.1151
36.53045
37.49328
36.98233
36.59502
35.54895
35.29545
33.58292
34.177
33.60864
32.65445
31.79985
31.47343
30.9289
30.14755
29.4863
28.8437
29.08415
29.26029
29.04312
28.45004
28.31361
27.52835
28.49561
29.88235
29.81933
29.35581
28.79182
28.19098
28.10591
27.6312
26.82826
26.91552
26.21941
25.69231
24.86501
24.65822
23.99835
24.06204
23.65546
23.29507
22.68185
21.59886
20.6468
21.6306
24.79127
24.03475
23.64227
23.03782
22.57584
22.04185
21.00814
20.48613
19.77998
20.62284
22.86978
22.8648
22.05302
21.48281
20.73332
20.14166
20.12082
19.83076
19.71142
19.36061
19.01699
19.00435
17.95833
17.91773
17.58075
20.0857
20.426
20.882
20.54543
20.00647
19.82815
22.32614
22.27499
21.91106
21.63313
21.40362
21.46979
22.95695
24.63931
25.84507
25.224
24.733
23.9885
23.64146
22.98564
22.40095
21.57589
20.91332
20.01737
22.46899
22.4962
22.62576
22.55392
23.17292
22.57129
22.0662
22.48718
22.70524
23.86415
24.55671
25.1148
24.9866
24.79613
24.58641
24.65309
24.04359
23.55833
22.65274
23.34611
23.50639
33.22593
33.23194
33.1068
33.38274
32.6354
33.97073
36.73211
38.82767
40.2657
40.316
39.28486
38.60808
39.36536
37.83855
37.32366
36.81839
35.61708
36.17015
36.24799
34.93671
33.5798
32.82839
32.58493
31.37601
36.26415
36.09599
35.39628
34.9994
35.06659
34.54398
33.45798
33.12741
32.41974
31.61618
32.49931
31.95936
31.64798
30.84884
29.94678
40.32558
39.89804
39.40318
38.53009
38.29366
38.3084
36.60923
36.63214
35.36913
34.50991
35.40205
34.96834
34.11631
33.608
33.22315
32.27864
40.30659
41.64183
46.4767
48.73837
49.06277
47.51971
46.46045
45.99899
44.28549
42.66224
42.24565
42.08668
41.19049
41.08259
41.27169
41.26443
43.90697
44.02504
43.27183
41.8117
41.49586
40.11973
39.4476
39.54206
39.2162
39.47361
41.17978
42.31694
41.65145
40.37634
41.2616
41.80863
43.92659
43.60612
42.33354
43.38114
41.76106
42.47241
41.43653
42.58963
42.45537
41.56713
41.88162
41.77936
40.59155
39.13216
39.03986
40.43915
39.4085
38.25646
39.55172
43.91374
45.93204
45.28118
46.22253
47.04092
45.53299
46.25207
45.91763
45.47709
44.34087
42.88509
41.22544
40.04648
39.2153
40.13064
43.40059
47.44341
63.58459
63.04284
71.36121
70.86826
71.41339
71.73743
73.24761
70.63421
69.44463
69.68072
68.6371
66.24017
65.80158
63.73504
68.31039
72.59465
71.84503
85.57967
89.25541
91.93931
91.54365
95.15481
93.02447
95.22772
93.82074
96.19069
95.51778
99.33223
102.0835
104.82753
132.02414
144.02241
145.97867
144.37805
141.32248
153.57873
167.24168
193.1987
194.93451
191.67061
195.03414
192.44884
186.71178
187.00094
185.11159
183.3179
184.9152
179.90483
185.55377
188.93993
186.55493
182.33744
184.52619
179.35218
189.69488
185.00524
180.31344
177.46462
169.67858
163.78868
164.23449
158.51845
154.99571
149.52816
143.14543
139.95147
135.38565
139.00096
139.18661
134.66471
133.7408
140.87789
136.49304
133.42211
128.97338
126.45029
140.74241
137.82224
136.19136
139.16484
137.79592
132.77264
128.72888
129.87824
126.70766
131.98282
133.11334
129.42667
131.46762
128.95279
125.19188
121.53317
120.63295
119.70916
116.88994
112.99637
110.00806
106.55891
103.47542
111.0136
108.2462
104.41076
101.34713
98.01805
95.11962
92.68679
89.87988
90.75917
90.5978
90.22582
91.50969
92.09614
88.32427
86.57682
86.39776
82.24721
84.89384
82.85356
84.20402
81.54302
81.80852
82.29077
81.17786
84.95087
86.6408
91.16289
101.26768
100.11642
98.59239
97.76293
98.74772
101.05146
101.82135
98.87411
103.88311
