atr
0.0
80.89714
96.84735
99.37182
115.02598
131.37984
163.79485
209.94164
227.95724
244.6753
253.26777
259.5515
266.03783
263.77727
319.94532
333.20994
333.82566
334.15668
338.33835
328.56847
332.30286
332.21909
323.31701
333.71079
372.37431
373.39043
389.20111
402.81675
401.17127
397.52903
389.7541
389.03024
417.81093
413.19944
446.89948
466.88594
504.21623
496.29507
517.63114
501.61963
484.28966
469.91182
461.81741
448.60259
452.72527
435.91846
451.08286
452.54694
453.00787
445.12945
450.99449
442.65631
429.758
414.04815
396.54399
392.37942
387.26732
389.66251
416.0809
413.90513
414.88547
401.65723
399.59385
398.29858
393.65225
408.15423
391.91107
389.956
381.912
366.34185
371.59386
366.97216
373.83129
367.80263
359.28244
367.29369
358.94129
352.23048
358.85402
351.34873
351.59454
340.5235
338.87111
352.20031
344.07243
334.22726
336.30674
334.28269
331.2625
324.28017
314.93945
329.59234
380.96075
380.59141
377.05202
369.94974
374.19333
369.83595
359.99909
355.20059
341.89483
328.71234
317.23289
317.6134
309.20958
304.30604
292.43418
336.31388
353.17003
357.16789
352.29447
339.05486
333.85094
322.62802
318.88888
319.87824
321.60265
320.74103
337.43167
345.13227
351.25425
345.00823
345.39693
342.48072
331.48638
332.00378
333.5228
338.88403
407.35374
454.07133
453.20838
441.54992
443.20279
448.75044
665.91113
1052.10105
1066.27954
1059.38529
1087.1742
1061.2589
1047.56112
1034.82961
1010.46392
991.05507
970.05257
936.1981
890.32109
890.33173
864.8016
855.83792
893.20664
866.90331
920.81021
901.35377
893.68636
861.28019
841.57018
875.52945
864.81806
853.14534
840.06282
811.71833
782.78845
744.73213
735.31912
708.25061
715.53057
715.7291
701.45345
683.99178
675.43951
668.20954
648.87815
626.10971
604.78616
592.33
578.66286
557.5648
538.78945
524.82878
576.69815
577.409
558.10836
543.54847
544.39144
542.09919
529.60497
508.37104
514.58382
497.81998
483.76284
474.74478
472.05872
471.91381
460.70068
445.78992
433.32421
434.76391
428.71149
439.87281
460.99332
471.32594
457.80123
456.04543
470.2329
481.82126
534.45903
559.44553
536.23085
522.21436
499.40119
483.59539
505.19572
550.15531
549.92708
555.818
553.601
537.1495
521.11025
515.53952
502.52741
492.66688
477.39282
482.58333
473.37309
478.24144
466.44991
456.41635
448.99304
435.93853
421.98721
406.39527
418.96918
408.99495
394.06817
395.05687
386.59781
372.00868
372.32734
363.37896
375.12189
367.80819
370.98617
354.82073
349.32139
342.70629
341.48799
341.36527
377.9749
377.05098
368.31162
357.79579
347.34681
360.57632
347.49015
338.79514
336.5162
322.37148
313.09923
305.23643
369.09954
370.931
381.72021
402.54163
399.03937
441.83798
442.85599
452.60556
440.63373
456.24489
445.9374
465.44902
460.58337
449.8417
439.30658
461.14111
464.34532
596.47351
759.53754
753.52272
720.26395
686.78153
668.86642
635.97239
627.80722
625.04027
601.14525
582.98988
591.74489
569.13668
543.38478
524.53301
505.66565
484.25667
489.96691
474.83213
467.37841
466.05924
452.38429
440.19684
469.0285
466.29503
470.4911
464.94745
458.58906
450.78056
447.77766
431.4314
436.98916
438.80993
455.70351
449.3304
448.01751
451.13841
436.13138
422.83628
413.5744
406.31766
402.26283
399.18262
392.43386
381.9793
396.4265
391.14317
390.50366
398.74197
389.78255
402.11951
400.53026
393.80881
382.62889
369.64969
363.17328
361.44948
358.25166
367.69939
366.47515
357.97264
359.2596
376.7032
419.3594
403.53301
388.44708
373.01943
370.7609
375.50441
379.18267
374.32819
377.69618
397.00216
404.61987
433.55273
420.46111
437.70817
434.08545
425.62506
432.09112
444.4089
430.52041
426.00181
422.78454
438.57278
432.13401
426.59873
424.06739
408.76829
400.26913
405.7849
401.25884
393.25464
397.8343
405.91543
398.86575
394.57677
391.32486
379.83737
379.58541
385.28717
399.37951
404.40526
419.3006
431.17699
437.98577
436.92893
430.48187
425.34673
406.40768
401.37999
402.64499
413.87963
403.66537
391.06928
377.00433
372.89973
356.95047
355.09258
360.45168
351.19727
336.9589
333.66469
335.82364
331.73195
322.27253
315.92663
326.87473
320.69868
315.94163
323.28937
333.97156
334.41502
328.48466
323.53504
319.86397
315.64297
311.61847
310.36001
301.35715
298.61735
286.27111
329.84104
332.95882
322.88747
332.04694
325.8293
319.59364
322.98623
335.15436
340.55191
341.06891
338.96542
370.36932
372.22937
388.27155
389.3893
465.18364
501.72195
497.15467
478.0779
469.1102
532.44375
529.71134
523.06339
559.20886
618.22609
684.78137
707.24841
688.19495
680.3346
670.46284
659.94193
676.86822
704.50763
708.01923
692.24714
706.86092
734.14871
884.43666
911.97047
889.32543
854.13147
834.82637
816.48449
795.37559
780.70591
755.51191
727.45606
716.44634
689.09589
674.04333
664.34238
689.98792
711.98878
727.93244
754.0087
786.1295
785.64454
843.32993
951.90922
969.58499
960.72535
957.97854
1000.50293
957.34915
919.02064
881.65916
845.82636
821.83591
807.43406
777.54877
745.686
731.56486
705.27737
681.00113
676.0139
650.9422
674.37347
654.27536
641.81784
672.36871
675.09666
653.75832
652.62487
633.24524
603.25701
613.18651
613.02318
591.79653
590.5232
568.09369
559.04914
567.44563
553.33023
547.62593
537.90765
550.14781
543.17726
542.93959
557.66105
541.14026
540.01882
522.47747
567.1248
558.95517
539.5648
526.22874
501.9474
510.37973
494.65332
485.80308
482.02072
466.4671
458.50445
453.28127
448.84261
441.74242
487.79797
500.3124
621.55508
631.99829
702.85556
699.21159
731.85219
745.20846
753.49286
737.9648
717.1466
694.04684
672.91564
673.08023
655.41093
633.77444
628.49483
612.26949
622.68095
611.06946
599.93878
575.1453
565.6692
552.49712
554.38804
597.44032
587.01244
571.28584
562.55471
545.88866
544.15447
537.69058
538.69411
528.7781
505.57538
496.87428
480.99897
467.02905
458.31269
441.15821
426.02405
426.18519
431.61411
438.12024
440.66522
437.55699
430.16864
417.53945
481.28663
493.63616
618.82072
621.52209
600.21409
586.1738
560.97781
542.9544
520.7298
512.65124
491.90758
467.29704
456.04225
455.3578
446.79582
498.07826
503.93695
541.87003
545.48646
534.23814
524.1047
499.60651
483.76461
487.565
472.09393
454.82436
476.74476
474.68442
463.19625
470.85866
462.10447
500.95487
485.93595
491.68481
479.17089
464.46654
448.87608
448.93278
458.45901
455.45408
504.07594
503.25194
500.88109
495.62101
483.65522
469.27842
462.55139
474.86629
487.61441
493.3291
492.66273
480.83968
479.18685
471.98422
495.53463
511.67287
500.98052
501.37834
490.0956
489.33877
481.75958
479.00961
461.26749
450.26481
475.5209
513.42083
513.62649
502.19674
513.09412
500.67811
486.3711
474.97102
473.20523
465.85986
449.06201
469.39973
456.58546
439.8465
453.42889
450.13397
445.28654
445.45108
439.23743
434.9319
428.43248
425.9523
415.83928
458.29362
493.12764
494.62495
501.76531
494.29494
478.03958
466.57176
449.87592
465.02335
455.55668
465.97049
458.4176
480.6892
483.0564
474.16023
480.53021
474.6452
475.9784
497.86494
506.32959
518.19676
511.5277
495.3293
482.09149
476.03996
469.6321
472.64838
462.29635
447.79304
444.92211
435.96767
470.52284
458.27121
442.15969
621.81257
627.52882
633.83962
618.76893
616.27472
604.45295
605.3506
583.75341
577.06674
570.44197
562.65541
548.7093
565.5865
543.83103
548.78953
