atr
0.0
0.43786
0.60158
1.12218
1.36417
1.96316
2.03293
2.26558
2.32447
2.48558
2.49161
2.54221
2.67133
2.77838
2.8835
2.85682
2.82347
2.78537
2.75427
2.68111
2.67317
2.71938
2.86942
2.79018
2.85802
2.82602
2.71345
2.74677
2.66629
2.67227
2.55568
3.06956
3.03816
3.05758
2.96561
2.92806
2.89606
2.93063
2.8363
2.91156
2.86002
3.01645
3.03742
2.97831
2.89201
2.99829
3.1227
3.10679
3.09845
3.12856
3.14438
3.08764
3.18209
3.36837
3.50563
3.46737
3.49613
3.45426
3.3561
3.26209
3.35337
3.29242
3.31867
3.35805
3.36891
3.52756
3.48487
3.37024
3.26094
3.24301
3.59708
3.64158
3.71575
3.89605
3.97276
3.96257
4.00738
3.92829
3.85269
3.74464
3.60931
3.55722
3.60099
4.41449
4.4006
4.33484
4.23449
4.18346
4.05893
4.15043
4.2204
4.07823
4.0755
4.12082
4.05219
4.05989
4.13918
4.08424
4.01465
3.85432
4.33758
4.55347
4.43537
4.49713
4.46805
5.17318
5.12224
5.19137
5.4827
5.37465
5.2886
5.15299
5.06706
5.10941
5.0716
4.90934
4.87439
4.79979
4.74338
4.72456
4.87067
4.85562
4.81093
4.90801
4.99672
4.96981
4.93125
5.02545
4.98078
4.94786
4.86373
4.90203
4.83903
4.8341
4.95524
4.85843
4.89855
4.74579
4.67609
4.51852
4.36434
4.36045
4.29042
4.59825
5.06123
5.05543
4.94504
4.9704
5.02322
5.15085
5.38865
5.78374
5.79062
5.64129
5.50691
5.54713
5.43948
5.33666
5.1669
5.05998
4.91284
4.70406
4.53663
4.59973
4.6126
4.55242
4.80082
4.87862
5.14086
5.02151
5.09926
4.93788
4.84732
4.68537
4.51141
4.37203
4.39188
4.34032
4.18244
4.11655
4.18537
4.3157
4.32744
4.1719
4.15463
3.99001
3.84429
3.76327
3.63661
3.674
3.64085
3.61936
3.72512
3.65904
3.5934
3.58744
3.56619
3.53861
3.46728
3.37605
3.33561
3.20593
3.2405
3.39475
3.32084
3.26864
3.17588
3.21832
3.25772
3.50146
3.42778
3.34865
3.30232
3.18287
3.14909
3.04844
3.04784
2.97657
2.89895
2.92117
2.85895
2.87188
2.84317
2.80223
2.80207
2.81264
2.75674
2.7884
2.82423
2.86392
2.88293
2.89915
2.88992
2.81922
2.78927
2.77075
2.77641
3.0431
3.09073
3.0464
3.1188
3.05888
3.04468
3.08791
3.07306
3.11499
3.31463
3.30573
3.3246
3.50356
3.57045
3.59685
3.62136
3.58912
3.50347
3.44822
3.6512
3.74897
3.7969
3.98855
4.01294
3.90916
3.78922
3.75071
3.74137
3.69556
3.53945
3.47949
3.39738
3.64757
3.69488
3.72382
3.5964
3.67309
3.67573
3.64175
3.80662
3.86329
3.7302
3.78876
3.7117
3.63587
3.61045
3.64613
3.64641
3.57023
3.55022
3.51734
3.81039
4.04751
4.0434
4.50101
4.44594
4.44766
4.35568
4.28099
4.26092
4.89514
5.1112
4.92255
4.83522
5.08628
4.92797
4.93526
4.79274
4.58397
4.65869
4.5245
4.32275
4.15184
4.08385
4.00286
4.24194
4.40109
4.31315
4.16221
4.18134
4.05625
4.02437
3.95049
4.65331
4.82879
5.52887
5.45395
5.67081
5.64076
5.5807
5.43851
5.37362
5.27907
5.18771
5.06144
4.86277
4.72114
4.77535
4.86354
4.929
4.86764
4.93924
4.76429
4.5947
4.69436
4.66477
4.61728
4.88248
4.82873
4.83239
4.73722
4.86742
4.74403
4.5766
4.56899
4.4962
4.32576
4.16963
4.14395
4.09866
3.98519
3.96339
3.88243
4.07369
4.492
4.48685
4.50208
4.4805
4.36832
4.19273
4.1811
4.50174
4.4359
4.40191
4.33534
4.28068
4.31206
4.15405
3.98805
4.06176
3.92878
3.79672
3.71267
3.60891
3.52541
3.45146
3.31064
3.64845
3.61785
3.46586
3.47258
3.36811
3.2111
3.19102
3.08952
3.10527
3.01632
2.92659
2.80469
2.69935
2.7044
2.99623
3.0915
3.08139
3.08486
2.96809
2.88322
2.77728
2.8639
3.20077
3.18571
3.31745
3.32691
3.33785
3.258
3.15814
3.13756
3.02345
3.03678
3.03201
2.95758
2.96489
2.95097
3.80233
3.90288
4.0641
4.14238
4.05221
4.03348
4.02038
3.92106
3.76813
3.70755
3.65201
3.64044
3.84684
4.2792
4.59069
5.00207
5.08192
4.91964
4.73038
4.6025
4.72732
4.99037
5.12391
5.08935
4.91511
4.95189
5.02175
5.21591
5.25978
5.07622
4.93935
4.76582
4.60683
4.61706
4.71799
4.67527
4.68632
4.63587
4.72331
4.58164
5.05081
4.98361
4.99335
5.07311
4.88289
4.94769
4.93214
4.84984
4.84771
4.71073
4.65068
4.55849
4.92359
4.92334
5.45739
5.39114
5.21678
5.02344
4.95462
5.00072
5.11352
5.0547
4.89436
4.89905
4.90055
4.82908
4.78843
4.77712
4.66804
4.77032
4.82601
4.6513
4.66835
4.50846
4.41929
4.37077
4.34
4.13143
4.08275
3.9147
3.73936
3.66441
3.67695
3.80717
3.77594
3.82623
3.7515
3.61639
3.68594
3.71337
3.62313
3.64291
3.73198
3.65184
3.56385
3.69286
3.75266
3.70747
3.64622
3.60935
3.80297
3.74704
3.64797
3.52525
3.69702
3.63223
3.71422
3.9632
3.98083
3.89077
3.77143
3.6599
3.75919
3.67568
3.69384
3.68928
3.66076
3.61428
3.53183
3.46956
3.39888
3.3211
3.29031
3.23814
3.47042
3.48396
3.44368
3.61627
3.64797
3.72454
3.64207
3.6655
3.90867
3.95663
3.93115
3.82393
3.76293
3.69487
3.62023
3.60664
3.60474
3.48797
3.52098
3.43591
3.36906
3.35841
3.47352
3.45399
3.37084
3.35007
3.21435
3.18904
3.12696
3.02647
2.90315
2.93649
3.2946
4.53142
4.78132
4.68836
4.54491
4.35242
4.5851
4.87974
4.87976
4.74406
4.59591
4.4362
4.46362
4.53479
4.4573
4.33535
4.31568
4.28528
4.22419
4.44675
5.15126
5.30189
5.29032
5.12959
5.18533
5.31781
5.32296
5.25918
5.14138
5.03628
5.01012
4.86297
4.70704
4.63654
4.59464
4.76645
4.75099
4.73449
4.91989
4.91061
5.33199
5.15828
5.14198
5.01541
4.84359
4.80048
4.96187
4.90888
4.87182
4.89455
4.89279
4.80474
4.6494
4.54801
4.61601
4.74915
4.7785
4.77932
4.64151
4.58283
4.69049
4.56831
4.39843
4.26211
4.17553
4.44085
4.77722
4.70528
4.58633
4.4123
4.32214
4.23342
4.25817
4.19687
4.12495
4.06674
4.23126
4.18831
3.97772
3.83288
3.74411
3.70738
3.61329
3.67662
3.62758
3.50989
3.46633
3.34516
3.23908
3.12129
3.03548
2.92081
2.83718
2.76881
2.70889
2.94754
2.93915
3.24706
3.3287
3.22522
3.19485
3.11165
3.02796
2.92739
3.37615
3.51357
3.53188
3.43175
3.31234
3.24217
3.18559
3.09447
2.99558
2.8759
2.77119
2.76325
2.95945
3.05234
3.09217
3.14059
3.21055
3.2098
3.16338
3.15814
3.14613
3.30426
3.22753
3.15771
3.14501
3.09966
3.78039
4.02037
3.96034
3.93817
3.99687
3.8721
3.77409
3.69094
3.79302
3.65637
3.66163
3.8158
3.75039
3.97036
4.34891
4.36541
4.29074
4.60783
4.58798
4.59813
4.67898
4.64619
4.52504
4.37896
4.48332
4.46023
4.36378
4.26351
4.21255
4.17594
4.38408
4.46236
4.36077
4.60357
4.63831
4.56129
4.7712
5.06826
5.24624
