atr
0.0
41.89071
53.96995
85.67281
103.63832
133.29916
145.20636
178.94376
193.79564
217.96523
225.44272
239.19681
255.92561
271.00092
282.76943
286.91947
293.22094
294.9873
291.36106
287.58099
287.74663
296.80116
299.11822
296.9562
309.60362
306.06121
299.3597
296.12543
292.64147
287.23637
281.29449
337.87631
331.25729
329.54819
319.12689
310.17569
311.89385
306.75858
296.75368
291.05627
282.60225
292.46066
284.82133
280.01909
280.18059
287.43555
295.44158
301.51789
299.73162
294.75079
291.53287
285.54195
280.80896
305.72332
312.72594
317.5748
315.40374
306.97347
300.33823
289.28192
292.29464
284.26288
278.17196
271.27825
269.58266
264.91033
258.82602
249.18345
240.67034
257.72818
280.87259
286.64598
304.83269
317.32893
318.65329
321.45591
328.18335
327.37311
317.93789
313.53732
305.59823
298.86978
297.09266
361.31532
357.5628
354.00332
341.52665
339.05832
329.55987
349.46416
360.82601
355.93201
364.43829
364.7677
356.44501
362.87965
375.12682
370.65204
360.33976
344.48406
384.38377
379.28493
365.31243
359.49297
362.67062
406.96057
409.62839
419.85993
436.15494
446.81387
435.13145
426.86135
424.45054
432.10621
423.29577
423.85893
412.43615
407.545
412.13607
408.71278
412.30472
404.34224
396.93922
395.72928
397.96147
391.67351
381.48326
385.98946
378.41449
367.0156
360.60449
365.53631
364.06515
355.64049
354.70117
345.04466
335.93647
327.60458
320.46997
312.08068
299.69778
308.72508
303.29472
309.28938
346.19157
340.53503
326.1261
329.18852
321.67005
334.40648
357.33744
404.57977
403.27621
394.09934
387.48939
407.518
414.42957
407.16103
401.08096
388.62161
383.13863
374.01016
361.15443
373.62197
369.3454
361.9343
358.79614
358.09284
368.7555
376.16439
379.29479
377.19445
368.10199
366.45113
362.24034
348.73174
346.82233
342.21359
332.24119
324.96611
327.74853
344.06649
344.60674
332.61769
327.53071
315.0178
303.52653
296.34607
287.65849
310.62503
306.71324
304.12444
319.9834
320.89316
314.98508
303.88472
302.95724
301.281
300.04236
293.12648
291.04602
283.68916
277.71279
282.64902
276.67409
275.76951
270.41883
261.18177
270.94593
308.60765
295.7771
292.33517
300.4998
290.82124
290.2033
283.55735
289.14825
284.64338
275.35313
269.0472
267.22454
263.69207
260.76692
255.24714
263.81235
264.34361
261.59549
253.98153
251.35713
253.09091
248.30799
240.20456
247.57566
241.6374
235.93759
229.70205
223.47619
271.01789
275.04947
271.47022
270.85663
265.30116
263.34536
265.06283
273.87478
267.21015
265.77014
267.96156
268.47216
271.88629
282.57727
280.82675
277.69055
277.73766
273.0214
267.18201
275.81258
270.75954
272.761
296.71879
299.18673
290.21982
286.73483
288.52377
295.86065
293.61846
283.26214
274.96127
265.01761
275.22992
275.2235
281.78039
273.05537
266.7307
269.10565
269.9881
305.63181
310.08739
300.00972
302.7976
299.59063
301.40558
301.47233
308.49573
311.94604
307.22703
299.79082
294.64147
306.19637
301.9452
296.66697
342.14647
334.4203
334.66027
324.17026
313.47524
312.01843
357.58855
363.93508
351.94972
343.73902
361.10123
353.82329
343.20448
335.67202
321.46688
330.14781
323.29297
311.74204
299.44618
301.2386
300.68156
307.46144
315.69634
308.89232
301.47929
297.77077
290.20215
289.75056
286.22195
282.60181
282.97097
317.27804
308.37104
325.42525
335.63416
331.82244
320.72726
316.55817
327.22259
325.1024
330.85223
329.53136
317.33055
312.27336
318.15741
322.7926
317.21455
315.01923
302.95357
293.36617
290.0693
287.69578
283.89894
292.48187
286.88888
290.21253
289.90235
321.45004
317.48861
309.64585
317.92186
326.58316
318.15722
306.68884
300.7825
292.22661
285.69542
288.4836
289.10263
302.18244
307.57941
303.46517
295.9498
292.76196
284.33253
275.14592
265.39907
290.36485
283.19522
288.14842
283.76067
280.69491
290.95385
281.32143
284.1949
280.64026
274.91024
265.9538
262.3571
256.14731
248.84393
239.36007
233.28364
264.45052
280.67549
270.34009
262.58652
254.50105
243.59455
242.06708
242.12514
235.33049
232.5726
228.90813
222.05683
218.02277
212.824
243.41015
242.43656
244.97681
252.3549
241.96812
233.41039
226.43394
233.25008
253.94651
261.7189
265.91898
262.07405
258.78233
252.00217
252.54344
252.75534
247.3521
249.04409
244.80737
245.0597
246.04972
250.73617
283.4693
286.14007
297.31292
299.88985
291.55558
284.12447
281.24272
279.42609
269.95352
263.09184
259.93742
255.11046
259.25114
262.8082
282.44048
316.07044
324.40541
314.61574
302.54961
292.61893
290.01543
306.14504
319.3004
312.85608
303.51565
304.55882
321.43819
319.47903
320.72267
305.08748
297.97052
288.35905
283.01555
283.14015
281.62871
285.11523
287.65486
288.70594
281.13909
270.55772
323.3386
328.81442
323.69553
314.03728
305.55033
329.23673
331.77625
332.63652
330.33391
316.04792
320.3145
312.32917
331.46209
339.16908
393.72844
395.28212
397.0334
389.22815
387.424
380.36728
388.76891
374.78613
362.58498
357.24176
354.00664
349.43474
341.05154
340.07643
331.13311
340.58503
331.22253
327.41521
339.58769
330.04643
329.6124
335.72508
335.07758
321.94204
314.25403
303.50303
292.53782
299.41797
292.83383
289.55999
283.96213
296.86841
292.44995
286.49781
281.65297
284.0449
274.42883
271.78106
270.55598
266.15913
259.62348
253.62823
252.34621
251.1172
244.26597
242.63626
254.61652
249.18106
248.36812
242.53254
250.39093
248.44301
281.28994
302.2178
307.47796
302.30453
295.16635
287.62018
283.77874
277.76169
273.27871
267.63595
269.06195
269.0961
263.00709
271.77158
261.5629
254.97055
249.95479
248.59231
275.62357
278.40332
270.57022
292.54021
292.05162
295.38579
292.59823
297.22622
312.45363
310.01337
309.02242
301.98724
310.33316
315.45222
308.1692
310.10926
312.56002
311.21502
313.42824
306.88622
300.11292
301.89057
303.23624
304.52294
295.29701
295.19723
283.25457
292.64853
284.67435
277.38118
273.53181
312.49311
410.07074
602.01855
606.24079
592.96645
580.27885
568.2225
591.14232
628.98787
631.12731
613.37536
616.20498
599.65248
611.79444
621.06698
602.82506
592.41684
620.93635
620.90447
635.03201
681.31543
787.65933
806.23438
812.77549
796.28367
778.27484
775.31664
770.51116
757.28822
733.60049
705.19546
683.1315
655.2921
642.80552
622.24799
609.6267
604.77837
617.81848
615.25359
628.52191
629.42248
638.01302
614.62566
621.37669
612.77621
597.64005
591.95862
642.493
657.44065
655.99131
678.75265
675.11389
692.94718
684.88238
676.22436
695.9969
676.90427
669.81968
659.68684
655.28421
666.84748
711.02623
698.88293
685.79129
675.00977
671.10479
726.59659
798.1254
794.7293
785.0065
754.2046
746.0807
737.19137
747.28341
732.39888
706.58039
680.58393
676.50937
667.72513
641.7869
617.09784
602.14299
609.32207
599.72763
610.72637
592.10306
574.83141
560.08846
546.95999
545.13785
532.11229
514.5107
497.88993
478.3578
463.74795
451.49381
465.95497
460.8489
449.20398
437.80227
418.03425
416.02466
402.07933
392.48652
380.85677
446.82628
450.67012
448.58511
444.16475
437.87726
426.10032
419.28887
403.77895
398.52545
380.1172
373.43955
404.72601
512.60272
538.7011
538.50673
572.61697
590.31576
567.43249
552.40231
545.24714
533.18235
543.67504
530.09396
504.80082
497.53219
490.92275
478.0597
478.25758
461.77632
462.23444
467.77841
466.19781
460.76796
452.64097
443.5159
438.15191
457.39248
459.96945
452.17663
466.90401
480.1873
467.87964
450.12966
474.45969
470.23114
471.5532
464.76726
448.71245
430.60728
415.92104
427.13383
417.48141
409.08274
397.9804
391.35108
391.22886
413.53609
419.73065
408.90346
443.20107
439.68671
435.99837
490.04135
527.57411
536.2731
