atr
0.0
0.42857
0.66224
0.97208
1.35265
1.52746
1.66121
1.69256
1.90737
2.33542
2.48289
2.4484
2.64494
2.70601
3.20559
3.39804
3.19104
3.06311
2.89432
2.89472
3.00224
2.87351
2.78969
2.79042
2.84825
2.77338
2.71099
2.74592
3.09978
3.20694
3.07787
3.19374
3.1299
3.08491
3.05742
2.9176
3.37349
3.36109
3.49959
3.62819
3.56189
3.75747
4.08194
3.89751
4.01197
3.91826
3.80267
3.65962
3.75537
3.6657
3.55386
3.45001
3.30358
3.29619
3.31074
3.62426
3.52253
3.51378
3.36994
3.20065
3.07918
2.93067
3.01419
3.34175
3.26019
3.14161
3.04578
3.2068
3.19917
3.1278
2.94724
2.87244
2.97441
3.26909
3.39273
4.22182
4.45598
4.22341
4.01459
4.22783
4.14727
4.20104
4.24382
4.54069
4.35922
4.26927
4.57147
4.34493
4.92029
4.80456
4.60423
4.6325
4.60161
4.45149
4.19782
4.04083
4.28791
4.31021
4.58805
4.65319
4.44225
4.87494
4.76245
4.7937
4.48701
4.25222
4.49135
4.55625
4.60938
4.80871
4.6938
4.51567
4.37884
4.33035
4.22104
4.28382
4.06355
4.05187
3.94102
4.23809
4.24965
4.53182
4.53669
4.32693
4.89643
4.81097
4.72448
4.54416
4.85529
4.61562
4.55737
4.41041
4.70252
4.98806
4.71748
4.47338
4.26099
4.52806
4.30463
4.13287
3.93052
3.90692
4.32785
4.333
4.93065
4.9356
5.21877
5.146
4.97843
5.01569
5.10742
5.02832
4.99773
4.80503
4.81896
4.60332
4.41022
4.24521
4.35626
4.12367
3.97913
3.95919
3.74067
3.78063
3.71772
3.65217
3.6413
3.5455
3.44939
3.553
3.37065
3.25846
3.34714
3.29377
3.26565
3.1681
3.08466
3.01433
3.04902
3.08123
3.004
3.28229
3.53355
3.43116
3.30036
3.35748
3.23909
3.26487
3.30309
3.4243
3.47256
3.51024
3.91665
4.05117
4.17609
4.45637
4.71663
4.62258
4.99954
5.27815
5.35828
5.47554
5.61301
5.71208
6.01121
6.46041
6.73467
6.91076
6.96
6.98428
6.76398
7.74512
8.9919
10.2639
11.14505
11.32755
10.91844
10.89569
10.81029
10.5167
10.02265
9.8996
9.57106
9.33741
9.35617
9.05215
8.75557
8.49446
8.81628
8.66512
8.8319
8.56533
8.4321
8.08695
7.83788
7.58517
7.27195
7.30252
7.10948
6.98024
6.9745
7.24061
7.102
6.859
6.56907
6.44985
6.41772
6.44502
6.48466
7.10005
7.20718
7.19953
7.47813
7.52255
7.33523
7.26843
7.61354
7.77686
7.81422
7.62035
7.57604
7.40632
7.26301
7.08708
6.80229
6.81641
6.6581
6.38966
6.17612
6.09211
5.94267
5.84677
5.62914
5.61992
5.52564
5.65238
5.70578
5.62679
6.22488
6.25167
6.29084
6.23435
6.5319
6.55819
6.63261
6.55885
6.31893
6.08901
6.18979
6.14766
6.02997
5.84926
5.83146
5.72207
5.52763
5.54709
5.87944
5.79519
5.81697
5.80861
5.74371
6.46916
6.67136
6.50198
7.45184
7.36242
7.23653
6.98392
6.69936
6.49226
6.31424
6.26323
6.40157
6.3586
6.2687
6.05665
5.88117
5.76109
5.44958
5.33176
5.89377
5.85136
5.61198
5.36112
5.17818
5.19403
5.19446
5.19485
5.23808
5.26393
5.29508
5.30971
5.32331
5.37164
5.35938
5.29085
5.99865
6.6916
7.27792
7.79378
8.35137
8.18341
8.14174
7.9459
8.24977
8.99621
10.2322
10.50847
10.65072
10.68995
10.9121
10.80409
10.47523
10.19128
10.32048
10.31902
10.41051
10.50976
10.12335
9.70026
9.79309
9.89359
9.7869
10.05212
9.9984
9.69852
9.50576
9.56964
9.23609
9.41209
10.52551
10.6094
10.35159
9.9479
10.06591
9.92549
10.03795
9.96381
9.50925
9.37288
9.22482
9.0659
8.87548
8.7558
8.90182
8.77312
8.46789
8.36304
8.57283
8.28191
8.09749
7.85481
7.62232
7.70644
7.74884
7.70964
7.75181
7.88382
7.97783
10.97227
11.5314
12.24344
11.91891
11.54613
11.23569
11.01886
11.11751
10.78769
11.06714
10.91949
10.88238
10.70507
10.72613
11.40998
11.01641
10.76524
11.13201
10.86544
10.54648
10.38601
10.3013
10.45121
10.23326
9.92374
9.58633
9.24445
8.94842
8.78068
8.48206
8.13334
7.97381
7.70426
7.66824
7.74908
7.45986
7.62701
7.35365
7.15696
6.99575
6.76748
6.57695
6.56431
6.44543
6.4279
6.46162
6.40008
6.3215
6.89854
6.9415
6.73139
7.53629
7.32656
7.00323
6.66729
6.66248
6.5223
6.62785
6.46872
6.52095
6.56946
6.45021
6.49662
6.26115
6.49964
6.47824
6.36551
6.4894
6.52587
6.45259
6.36312
6.18004
6.37433
6.59759
6.51919
6.42496
6.30175
6.22305
6.02855
6.1408
6.28074
6.5464
6.68594
6.85838
6.94706
6.82227
6.91354
6.684
6.62086
6.46223
6.41492
6.39243
6.20726
6.36388
7.26646
7.33314
7.13792
7.18521
7.06484
7.13163
7.41509
7.2783
7.25842
7.06853
6.99221
7.20705
7.07083
6.83006
6.67077
6.44429
6.29826
6.14125
6.10973
6.16618
6.91145
7.72492
7.64457
7.39138
7.70628
8.32012
8.61154
8.63929
8.37934
8.03081
7.95718
7.71024
7.80237
7.54506
7.22041
7.01181
6.96811
7.02753
6.73985
6.80129
6.57262
6.92458
6.70854
6.72221
6.68491
6.54313
6.40434
6.3326
6.6017
6.66586
7.18973
7.35475
7.38655
7.28751
7.18841
7.27495
6.98388
6.67075
6.46569
6.83243
6.87297
6.74633
7.15731
7.31036
7.4739
7.26862
7.35658
7.17397
7.34725
8.12959
8.64891
8.58827
8.68197
8.48325
8.44159
8.47434
8.28331
7.97022
7.92949
7.67738
8.45757
8.46774
8.37719
8.12882
8.60533
8.93352
13.62399
13.82227
13.64211
13.31053
13.99549
16.13867
15.73591
15.06192
15.00749
15.49267
15.5432
15.07582
14.63469
14.47507
13.91971
13.42545
12.86649
12.29031
11.86243
11.50797
11.52883
11.44106
11.11669
10.68693
10.24501
9.83465
9.51789
9.51661
9.594
9.98728
10.10962
9.9875
9.74554
9.63514
9.83978
9.80836
9.48634
9.73017
9.58516
9.37193
9.37394
9.84008
9.97294
9.65344
9.81391
9.85577
10.47322
11.02513
10.75905
10.49769
10.52643
10.32454
10.15136
9.97626
10.42081
10.36218
10.16488
9.86025
9.44166
9.39583
9.11755
9.20916
9.4085
9.80075
9.69356
9.44402
9.82659
9.68183
9.73313
9.79505
9.65969
9.61971
9.46116
9.25679
8.80988
8.49489
8.45954
8.52671
8.70338
8.49599
8.26771
8.0343
8.36042
8.34182
8.1674
8.00545
8.00506
8.06898
8.02834
7.82632
7.66729
7.36963
7.3218
7.48453
7.84992
7.66064
8.03488
7.77524
7.94844
8.30212
8.3234
8.47173
8.50946
8.4445
8.56275
8.5297
8.56329
8.3802
9.02447
9.35844
9.48283
9.37692
9.18571
8.93673
8.87696
8.80718
8.71381
8.7914
8.47772
8.35789
8.20375
7.8892
7.8614
7.6213
7.62692
7.825
8.33035
8.40676
8.19913
8.29919
8.36354
8.13043
7.97825
7.83695
7.73431
7.63186
7.63673
7.96982
8.00769
7.86428
7.65255
7.72022
