atr
0.0
1.11643
1.5174
1.70401
2.13873
2.25239
2.53507
2.79043
3.54682
3.72205
3.85619
3.98432
4.50044
4.82112
4.92033
5.03316
5.01079
5.35859
6.22655
6.30537
6.44141
6.26131
6.26551
6.02725
6.62531
7.35493
7.21172
6.95088
6.76939
6.58443
6.82555
6.73729
6.98034
7.30889
7.56683
7.30705
8.83869
9.8995
10.49811
10.32896
10.91117
10.89038
10.99749
10.99196
12.73253
13.26164
12.98866
13.11447
12.76844
12.33141
11.88702
11.59581
11.46253
11.63664
12.10474
12.00011
13.14296
13.10846
13.06572
12.72459
12.49284
15.66263
18.78887
20.33824
23.19122
24.47828
26.51554
26.38801
27.66386
27.21787
29.0416
30.9722
31.64132
31.02337
30.24528
31.51133
30.8448
34.30232
37.87929
42.80863
46.54016
51.81157
54.89646
54.23957
55.7746
54.9857
54.16172
52.5166
53.47613
52.58569
50.741
49.73021
48.48091
48.16085
46.2065
46.15247
49.51086
49.98723
49.88385
52.91501
52.33608
52.16993
51.54208
49.57979
48.98552
47.52226
46.09639
44.21736
43.03969
41.43257
41.84667
40.85763
41.34708
40.09729
39.00534
41.07639
40.05593
39.24908
39.16414
38.78742
39.37903
38.63482
36.96019
35.8916
37.75577
37.87893
36.68615
36.30143
36.02275
35.01184
34.09742
35.63118
35.61752
35.00199
34.1447
33.35008
34.52436
34.67976
33.97764
35.47566
39.39812
38.55325
37.3273
37.33607
37.02635
35.46947
34.73665
34.42974
33.06405
31.94019
31.65232
31.08929
31.72006
31.15148
30.77709
30.14801
30.2703
29.64028
28.54383
28.93213
29.63197
28.58041
37.82466
40.67147
39.30851
38.4829
37.28769
37.78643
38.69811
38.73825
44.6348
45.34089
44.64868
43.72878
44.68029
44.90956
43.66887
43.14467
43.92076
42.64071
43.08566
42.4574
40.83687
44.51138
44.20199
43.00328
43.4359
42.04334
42.77881
43.89318
44.59296
42.92989
43.55133
42.37123
41.53186
41.3653
39.7442
39.62676
38.15485
37.31093
36.66658
35.27897
34.56547
33.70365
32.48839
30.9735
29.83397
29.15654
29.31965
28.95967
27.72612
26.83211
28.80553
29.08228
29.00855
28.78579
28.07752
29.6277
29.57858
30.07082
29.40791
28.95734
27.9261
27.61352
27.79256
27.09166
29.1494
31.52373
33.51418
33.81388
33.64646
33.93885
33.57536
35.20641
35.35952
35.73956
40.54387
39.1686
38.22727
37.15318
38.56509
38.85116
39.04751
49.62983
52.07555
51.89873
53.94668
55.15763
56.71708
56.31372
55.20131
55.06193
55.73394
55.56508
58.25472
59.46796
60.62667
63.8012
62.1904
62.19537
62.32427
60.65754
59.94057
58.25481
57.8809
56.79584
55.06256
53.03809
51.04894
50.08545
48.43077
46.9
46.32857
44.48582
45.33255
43.68951
42.62169
44.74871
44.95737
44.04542
44.79503
43.78467
42.95434
43.06117
41.89751
41.41555
41.8323
40.84642
42.4531
42.88431
42.24757
41.4456
40.63449
39.57631
38.32229
38.32641
37.1831
36.26287
36.28267
35.88034
34.81674
33.7334
33.66744
33.0812
31.99111
30.77746
31.24336
30.03312
29.87004
29.58146
29.5735
28.72968
28.06185
27.47529
26.61919
26.49925
26.3343
25.50828
25.35983
26.74127
26.53976
25.99834
25.90346
25.29393
25.20579
25.64966
25.85897
25.88048
26.52044
26.5097
26.43543
26.17647
26.28101
27.96237
27.82791
28.54806
28.77391
28.86149
28.54996
29.4321
28.56838
29.59778
29.28008
31.03222
31.15778
31.10293
30.09773
29.29574
29.68676
28.90557
30.00517
32.90194
37.74109
37.42601
38.61772
38.19289
37.49911
37.32417
36.35673
35.04197
34.61183
34.04812
33.87826
33.14481
32.05161
32.10649
30.79746
29.92764
30.71424
29.47251
28.68733
28.07966
29.26897
29.51976
29.32263
30.57816
31.67329
31.10948
31.07952
31.55313
31.85005
33.28219
33.75132
33.43479
33.83374
33.29847
32.33715
31.25521
31.15984
30.16556
29.69588
31.76046
31.78186
32.1953
32.98135
32.52196
31.46397
31.47511
30.8326
32.08456
32.00709
31.23373
29.7006
29.75842
29.11139
29.23272
29.50324
29.58944
28.97805
28.48319
28.13867
29.21448
28.23916
27.83351
26.87683
27.17134
26.17839
25.27636
24.40805
24.08605
24.61061
23.76271
24.52966
23.72754
23.78129
23.74977
22.87907
22.46699
21.6665
20.8946
20.17285
20.7105
20.83904
24.59553
24.90728
25.12605
25.40419
25.2996
25.09963
27.38251
27.3309
27.26798
27.54384
29.26071
31.9778
32.2051
32.01045
31.98685
32.00993
31.32922
32.76713
33.85948
34.15166
34.47297
34.17776
35.32363
36.58123
35.92543
35.4429
37.33983
37.94199
36.59828
36.3284
36.5828
35.77403
37.19017
37.14373
38.77846
40.51429
41.20041
39.94038
40.74107
42.36028
41.46097
39.88662
39.61471
39.04795
38.7931
37.9393
40.1165
39.85246
39.89014
39.16085
38.5515
39.75996
38.98211
37.4541
36.39738
37.539
38.07192
38.56964
37.51181
39.27954
38.45886
39.25394
39.75366
40.94197
40.46183
39.0717
40.01158
39.36218
40.40774
43.70361
44.0655
46.77153
50.05142
49.71204
48.84403
47.98303
47.22281
45.17619
45.13146
45.19564
44.03809
42.70109
42.13101
41.02165
40.60725
38.74173
37.64375
37.66562
36.38879
36.46817
35.07044
34.62827
33.51482
33.60519
32.84767
32.47498
32.34891
32.38471
31.73651
31.03605
30.98633
29.83445
29.14842
28.56639
27.99093
27.56086
28.4808
27.82646
29.13743
28.48832
28.12059
28.69126
27.78188
26.98318
26.19009
25.5008
25.51717
24.97809
24.3618
24.24024
23.93237
24.36577
25.2775
25.88768
25.45713
25.07662
24.66258
24.00953
24.17671
23.8098
23.18339
24.14886
23.38394
23.96437
23.73763
24.4878
25.55939
24.89872
26.59238
26.25221
25.96634
26.49231
26.80715
31.45521
32.26269
31.6825
30.86304
31.63996
31.03354
30.964
30.67371
30.44631
31.31443
30.92911
30.84417
31.47102
31.59166
31.26368
31.81699
33.52435
33.03904
34.27911
33.98703
33.73724
35.54387
36.8843
36.32114
38.76106
38.2367
38.08265
39.7346
39.67142
38.43917
37.74852
36.66719
36.07025
36.20309
36.0643
35.46113
36.47748
36.35338
37.04599
36.73771
37.41216
36.67343
35.48533
34.43423
34.18607
34.1685
34.30003
33.66789
34.29947
34.43236
34.09648
32.40316
31.67579
32.12966
31.0454
30.64644
30.88241
30.42724
29.68529
31.66349
31.46038
32.34035
33.03104
35.64525
36.24916
36.8578
36.97081
38.2779
38.28376
37.91421
38.67891
37.58041
38.04038
36.95607
35.56206
34.9412
33.96612
33.79925
33.15216
32.90701
32.04936
32.8387
32.46022
31.65306
31.64927
32.01504
31.73182
30.76812
30.32611
29.84853
29.43078
28.20572
28.06746
27.37192
26.39821
26.83049
28.26259
28.82098
27.9852
28.54625
29.44866
28.45733
28.06824
27.93836
32.19919
33.60139
33.61129
34.91834
34.27346
33.79464
36.06431
34.76686
35.28494
34.86245
35.31799
35.87099
35.30163
35.08009
35.42937
34.92227
35.27996
34.70211
34.49482
34.02947
32.48094
31.94658
31.2104
30.43394
29.4358
28.24753
27.46842
26.61568
25.55384
25.86071
25.15423
24.50607
24.8685
24.48003
23.75074
23.12569
22.65171
22.24516
21.32265
21.06103
21.03739
20.40686
20.64137
19.90199
19.4947
19.31937
18.60655
18.24394
18.03866
17.73876
17.60885
16.88179
17.23666
17.2719
17.54748
19.55837
19.85492
20.86028
21.1924
21.19223
21.19707
20.95585
21.06829
20.58127
22.16046
