atr
0.0
0.00012
0.00018
0.00025
0.00029
0.00043
0.00046
0.00055
0.00077
0.00092
0.00109
0.00116
0.00129
0.00143
0.00153
0.00163
0.00167
0.00162
0.00165
0.00165
0.00166
0.00161
0.00157
0.00156
0.00153
0.0016
0.00155
0.0015
0.00148
0.00143
0.00142
0.00148
0.00158
0.00166
0.0017
0.0017
0.0017
0.00176
0.002
0.00202
0.00203
0.00197
0.0019
0.00185
0.00184
0.00181
0.00177
0.00172
0.00169
0.00168
0.00163
0.00158
0.00152
0.00148
0.00149
0.00157
0.0016
0.00166
0.00167
0.00167
0.00168
0.00177
0.00186
0.00193
0.00192
0.00193
0.00195
0.00185
0.0018
0.00177
0.00172
0.00166
0.00164
0.00158
0.00154
0.00168
0.00162
0.0016
0.00161
0.0016
0.00163
0.00173
0.00177
0.00177
0.00234
0.00242
0.00245
0.00246
0.00237
0.00228
0.00222
0.00219
0.00206
0.00197
0.00191
0.00186
0.00186
0.00179
0.00179
0.00172
0.00163
0.00158
0.00153
0.00149
0.00156
0.00161
0.00165
0.00168
0.00169
0.0018
0.00187
0.0019
0.00192
0.00194
0.00188
0.00182
0.00177
0.00173
0.00178
0.00171
0.00167
0.00171
0.00168
0.00167
0.00162
0.00157
0.0015
0.00146
0.00141
0.00136
0.00135
0.00151
0.00152
0.0016
0.00161
0.0016
0.0016
0.00174
0.00179
0.00183
0.00176
0.00168
0.00161
0.00158
0.00153
0.00148
0.00144
0.00144
0.00142
0.00153
0.00147
0.00142
0.00137
0.00141
0.00141
0.00148
0.00152
0.00153
0.00156
0.00152
0.00155
0.0016
0.00163
0.00162
0.00154
0.00152
0.00153
0.00148
0.00143
0.0014
0.00133
0.0013
0.00132
0.00129
0.00124
0.0012
0.00115
0.00111
0.00117
0.00134
0.0014
0.0014
0.00141
0.00139
0.00144
0.0015
0.00157
0.00154
0.00153
0.00149
0.00148
0.00147
0.00142
0.00142
0.00135
0.00133
0.00129
0.00126
0.00126
0.00121
0.00117
0.00118
0.00124
0.00136
0.00143
0.00145
0.00142
0.0014
0.00141
0.00149
0.00153
0.00151
0.00155
0.00151
0.00149
0.0015
0.00145
0.00143
0.00141
0.00138
0.00134
0.00134
0.00129
0.00123
0.00121
0.00118
0.00121
0.00133
0.00134
0.00137
0.00135
0.00147
0.0015
0.00164
0.00176
0.00172
0.00165
0.00159
0.00158
0.00152
0.00149
0.00146
0.00139
0.00134
0.00131
0.00133
0.00132
0.00136
0.00138
0.00134
0.00131
0.00126
0.00125
0.00135
0.00138
0.00136
0.00138
0.00133
0.00133
0.00137
0.00134
0.00135
0.00133
0.0013
0.0013
0.00126
0.00121
0.0012
0.00119
0.00118
0.00121
0.0013
0.00129
0.00124
0.00122
0.00127
0.00127
0.00136
0.00143
0.00147
0.00153
0.00156
0.00162
0.00175
0.00179
0.0021
0.00217
0.00211
0.00204
0.00194
0.00186
0.0018
0.00176
0.0018
0.00182
0.00181
0.00181
0.00179
0.00174
0.00168
0.00167
0.00166
0.00178
0.00186
0.00189
0.00187
0.0019
0.00206
0.00205
0.0021
0.00214
0.00209
0.002
0.00193
0.00183
0.00179
0.00173
0.00165
0.00162
0.00162
0.00159
0.00161
0.00154
0.00149
0.00147
0.00157
0.00182
0.00185
0.00179
0.00186
0.00201
0.00214
0.00221
0.00228
0.00222
0.00219
0.00211
0.00205
0.00195
0.00187
0.00183
0.00178
0.00174
0.00172
0.00167
0.00159
0.00157
0.00157
0.00156
0.00158
0.0017
0.00176
0.00181
0.00179
0.00186
0.00192
0.00192
0.00191
0.00191
0.0019
0.00189
0.00182
0.00178
0.00175
0.0017
0.00167
0.00163
0.0016
0.00166
0.0017
0.00173
0.00177
0.0017
0.00164
0.00159
0.00154
0.00167
0.0017
0.00179
0.00177
0.0018
0.00182
0.0019
0.00193
0.00198
0.00207
0.00203
0.00195
0.00187
0.00186
0.00178
0.00176
0.00172
0.0017
0.0017
0.00164
0.00159
0.00157
0.00149
0.00155
0.00161
0.00168
0.00176
0.00171
0.00172
0.00175
0.00176
0.0019
0.00212
0.00216
0.00211
0.00208
0.002
0.00193
0.00186
0.00181
0.00176
0.00174
0.00244
0.00239
0.00236
0.00228
0.00221
0.00232
0.00243
0.0025
0.00247
0.00248
0.00256
0.00259
0.00265
0.00271
0.00273
0.00271
0.00264
0.00262
0.00254
0.0025
0.0024
0.00233
0.00222
0.00213
0.00213
0.00207
0.002
0.00201
0.00194
0.00191
0.00206
0.00214
0.00212
0.00212
0.00231
0.00229
0.00229
0.00245
0.00255
0.00262
0.00282
0.0031
0.00309
0.00312
0.00302
0.00294
0.00289
0.00311
0.00305
0.00303
0.00303
0.00315
0.00309
0.00309
0.0031
0.0033
0.0033
0.0035
0.00368
0.00385
0.0039
0.00393
0.00418
0.00432
0.00424
0.0041
0.00392
0.00378
0.00365
0.00343
0.00337
0.00326
0.00314
0.00326
0.00319
