atr
0.0
0.29429
0.46612
1.02569
1.32814
2.13041
2.82681
3.1549
3.43883
4.14892
4.29114
4.5132
4.60797
4.53169
5.06799
5.71457
5.92067
5.93133
5.82338
5.73814
5.8047
5.75079
6.01717
6.57523
7.00271
7.18466
7.09361
6.85121
7.00827
6.92553
6.838
6.92171
6.99802
6.79387
7.33645
9.63742
9.67761
9.5892
10.08926
9.99217
10.37845
10.22284
10.05764
9.71209
9.4498
9.02696
9.04003
8.72146
8.70564
8.58809
8.32823
8.35264
8.64817
8.53901
8.55051
8.94976
8.69406
8.57877
8.71958
8.69175
9.90305
10.36641
10.32023
11.11522
11.48556
11.68373
11.51847
11.34286
11.00623
10.83793
10.71593
11.67194
12.10751
11.64626
11.38653
11.01249
10.66303
10.23138
9.93843
10.06997
10.21854
10.03936
9.71226
9.42639
9.21879
9.09316
11.01293
11.22201
11.2533
10.90306
10.78784
10.57657
10.20681
9.85347
9.67251
9.27947
9.38951
9.2424
8.95437
8.65906
8.3727
8.13608
8.07921
8.04856
8.0458
8.18182
8.21883
8.93034
10.12389
10.88861
10.62442
10.31411
11.07453
11.64492
13.41957
14.14817
14.49902
14.04766
14.21997
14.72568
14.58814
14.37398
14.14441
13.65838
13.53278
13.31687
13.30709
13.43659
13.61755
13.51986
13.24773
13.00218
12.59131
12.18693
12.04786
11.97159
12.17862
11.76372
11.50559
11.10734
10.68967
10.53684
10.51063
10.18845
9.9307
9.50493
9.44744
9.23191
8.99177
8.86165
8.61153
8.6607
8.54137
8.34556
8.29659
8.53183
9.00742
9.55331
9.38736
9.80184
9.72956
9.29388
8.93217
8.70845
8.3857
8.13315
8.30793
7.98379
8.01566
7.81097
7.57804
7.41961
7.33964
7.02395
6.95653
6.79749
6.94838
7.09707
7.02156
7.24574
7.24176
7.21735
7.45825
7.29052
7.01548
6.88723
7.31672
7.20124
7.04186
6.96387
7.60931
7.34864
7.27517
6.99194
7.07395
6.86581
6.75468
6.53577
6.33536
6.29784
6.13442
6.20696
6.04646
5.94243
5.85511
5.82118
5.83395
5.69867
5.70805
5.51247
5.66587
5.52259
5.42169
5.36729
5.27391
5.3822
5.64347
6.25751
6.23483
6.09591
6.20906
6.03127
6.02332
6.13452
6.16562
6.06308
6.04571
5.95174
6.1659
6.22405
6.52447
6.44415
6.53886
6.35608
6.47636
6.31019
6.22732
6.0768
5.89774
5.68719
5.5881
5.55324
5.44086
5.6008
5.56503
5.61181
5.46669
5.29335
5.38954
5.27029
5.23955
5.32244
5.2487
5.1945
5.15347
5.08965
5.15753
5.02128
4.8469
4.78855
4.62508
4.44829
4.50984
4.35914
4.40491
4.26671
4.34051
4.17691
4.07355
3.91759
4.02562
4.04307
3.92642
3.85954
3.766
3.80414
3.7667
3.7398
3.87767
3.85355
3.69758
3.5999
4.10847
4.09573
4.1196
4.01249
3.95803
4.04388
4.14289
4.08054
4.01479
4.07802
4.12173
4.02661
3.94042
3.81682
3.89347
4.04751
4.20126
4.5176
4.65706
4.76084
4.72721
4.97955
5.14101
5.23308
5.0
5.04715
5.66449
5.55703
5.42224
5.25708
5.65372
5.65988
5.54918
5.33781
5.21153
5.09071
5.07566
4.99383
5.15284
5.06335
4.89383
4.8057
4.69672
4.87052
4.83191
5.23963
5.48609
5.52708
5.55015
5.60442
5.50411
5.38024
5.61237
5.69791
5.64521
5.4534
5.64245
5.51799
5.49313
5.30219
5.13846
5.02572
5.21317
5.21151
5.48069
5.32921
5.17641
5.40381
5.65068
5.54135
5.55411
5.36667
5.34477
5.16371
5.05702
5.07223
5.0035
4.80754
5.15485
5.12879
5.03817
4.90401
4.81658
4.63468
4.62006
4.58149
4.48638
4.31735
4.29326
4.24088
4.29582
4.3404
4.29895
4.36116
4.37108
4.29029
4.4167
4.28265
4.22389
4.10647
4.08743
4.13762
5.14779
5.2508
5.34503
5.34753
5.21056
5.09195
4.9661
4.90423
4.7825
4.71089
4.82369
4.892
5.01542
5.00361
4.98978
4.89051
4.73976
4.56549
4.76081
4.6929
4.71198
4.53898
4.67262
4.56458
4.69639
4.56594
4.36337
4.14884
4.21464
4.14288
4.19125
4.15401
4.07444
3.95841
3.90281
3.75975
3.6612
3.69397
3.63297
3.76776
3.78292
4.10128
4.11262
3.99172
4.0016
3.92291
3.83627
3.89154
3.805
3.73393
3.61365
3.56267
3.46963
3.54322
3.45799
3.45314
3.41434
3.2626
3.22027
3.44168
3.55728
3.48533
3.35638
3.28378
3.24565
3.14382
3.25569
3.18457
3.1171
3.06588
3.01546
2.95435
2.90476
2.9337
2.87058
2.83625
2.74009
2.67294
2.60273
2.50182
2.49098
2.56234
2.55003
2.50145
2.93992
3.02921
2.93141
2.91488
3.14453
3.18492
3.13743
3.10619
3.1236
3.21406
3.3352
3.39268
3.73463
3.66645
3.55527
3.46061
3.32628
3.18512
3.13404
3.22803
3.36746
3.89193
4.06536
4.40426
5.0061
5.03709
5.79302
5.75852
5.85219
5.86204
5.70618
5.57145
5.56349
5.43253
5.36235
5.37075
5.5507
5.40993
5.26137
5.13698
5.02434
4.8226
4.85599
5.1027
5.1768
5.03702
4.88938
4.78585
4.87758
4.80561
4.75449
4.7406
4.59127
4.4969
4.33069
4.15064
4.03202
4.21188
4.17746
4.02264
3.89817
3.72115
3.59393
3.53293
3.4763
3.48085
3.46793
3.63879
3.60031
3.57385
3.44858
3.35797
3.44383
3.41998
3.3657
3.26029
3.20241
3.24438
3.24407
3.71664
4.58116
4.75322
4.66585
4.749
4.8905
4.76547
4.67008
4.51364
4.42695
4.23289
4.10911
4.19631
4.12301
4.16708
4.31586
4.62972
4.65689
4.65068
4.57849
4.84788
4.95518
4.86552
4.82227
4.68568
4.5017
4.39801
4.64315
4.54793
4.50022
4.38449
4.2006
4.17412
4.01954
4.02601
4.10272
3.95752
4.06842
4.03996
3.9771
4.09088
4.1751
4.13688
4.19496
4.15318
4.12724
4.19172
4.3116
4.1972
4.1924
4.18437
4.34263
4.26316
4.21793
4.14379
3.99638
3.90949
3.85382
3.90283
3.87477
3.95157
3.82146
3.8185
3.83718
3.70452
3.65777
3.5915
3.90068
3.84992
3.87992
3.73207
3.71407
3.59092
3.46728
3.4389
3.43613
3.34354
3.56758
3.56632
3.49801
3.38244
3.32727
3.29246
3.64871
3.52952
3.56884
3.47964
3.45895
3.50831
3.63986
3.48201
3.41473
3.70082
3.71647
3.60887
3.52538
3.48571
3.3353
3.24635
3.22018
3.29731
3.31393
3.22079
3.18717
3.11023
3.02664
3.03474
3.01225
3.02566
3.06669
2.98835
2.96204
2.98618
3.4986
3.45441
3.35767
3.33784
3.26799
3.36313
3.29577
3.25893
3.13543
3.11219
3.14774
3.64433
3.66974
3.54476
3.44727
3.34247
3.21515
3.14121
3.31898
3.18048
3.07473
3.01368
3.07913
3.03205
2.91262
2.94172
3.01302
3.03067
3.01562
3.0145
2.99347
2.94536
2.92569
2.81457
2.75996
2.78282
2.77548
2.83508
2.75758
2.65061
2.64199
2.62971
2.6433
2.61449
2.58989
2.59918
2.50352
2.51899
2.64692
2.55928
2.48362
2.48764
2.46781
2.44083
2.46148
2.40066
2.37419
2.31532
2.35279
2.36545
2.36792
