atr
0.0
14.77429
24.88755
47.59344
57.20105
68.91241
78.85223
90.84922
93.34642
96.89596
107.20553
171.11942
236.18375
279.52991
310.55063
312.77559
318.1209
329.33155
333.04144
338.87491
335.24099
330.89449
330.58345
322.56035
331.30032
326.85887
319.50252
316.8352
320.63269
311.62892
311.46543
310.78933
308.79795
311.21524
303.64272
294.56324
297.58158
299.99647
301.78243
298.84226
295.04638
287.45236
279.29147
271.84065
259.93418
250.12531
241.9735
236.86825
230.53766
231.53783
226.00298
221.69563
213.13237
215.25149
209.51281
218.76189
223.71819
230.83546
227.07221
221.88134
220.69124
213.71044
207.23112
209.30033
219.08173
217.01661
208.63471
200.47437
195.37049
190.93831
182.85057
179.63911
177.38488
176.88953
173.18314
175.13934
176.65439
172.76979
172.86909
167.48701
167.37437
162.16049
183.48688
197.32067
207.7392
200.94211
202.90196
198.06682
196.39776
189.29578
186.45465
177.77932
176.8908
183.05217
192.11701
195.50151
202.36069
201.14421
201.59963
197.31822
192.65264
188.12816
180.68472
173.9651
180.51759
175.61991
170.20277
170.07614
166.11071
163.39994
160.88566
156.46526
152.83488
149.04382
142.3264
139.0938
139.59282
137.47904
133.01697
133.3329
134.23626
132.79082
129.16504
127.7054
124.01501
123.55251
121.23876
118.84313
128.02291
128.38627
126.6794
127.65015
127.71872
130.31024
135.32736
129.83112
134.49247
132.83229
129.09999
125.62784
121.02657
121.66682
127.54776
139.4772
138.99169
138.318
138.30528
137.76062
133.117
127.82293
127.18772
125.60789
129.93232
126.26787
124.89231
126.05857
127.16153
123.24928
124.36647
121.77958
118.40961
114.95893
127.12472
127.09509
126.92687
124.99781
120.20654
121.96607
120.20564
117.71595
113.26052
109.6862
105.99719
106.46524
113.42058
109.93483
113.43091
134.0137
137.22415
137.36743
145.70261
150.67957
148.01389
146.95146
148.2185
146.18932
143.23009
140.65151
143.7114
143.41344
170.13034
179.40675
185.16341
193.19816
193.59544
186.13291
185.93698
185.82149
181.59424
198.21322
212.49228
210.79354
215.08257
213.94453
209.73064
218.24273
209.71254
207.57093
202.73372
198.08703
197.31081
189.85647
187.73958
190.32675
185.89484
180.35092
177.55086
179.06008
175.72865
173.89089
168.91868
165.09592
164.53907
159.81342
159.21532
166.12779
169.33367
167.03555
164.01444
166.69126
169.96617
174.96002
171.6693
169.54149
166.12782
166.97369
161.70271
157.2868
153.1956
153.71092
167.21228
174.6114
179.24202
186.47759
181.64276
182.06399
180.00728
184.6039
185.03576
184.65821
193.01691
190.73713
198.50591
195.77691
193.71642
187.3081
185.97895
183.76617
178.03573
174.94246
172.063
172.13207
168.14264
165.92245
179.02085
173.65507
166.384
159.39085
157.19722
152.26742
147.62903
144.1791
143.23917
142.4978
138.70653
139.29749
136.37052
131.09192
133.64321
132.45084
129.27863
131.03444
140.52198
142.08327
138.74804
136.78818
140.89545
138.80292
140.59414
137.50956
133.4003
128.91385
128.01358
127.69475
128.54513
143.1019
143.07605
141.09919
139.23496
139.93247
139.51515
138.19192
134.64893
143.17972
145.54545
144.97006
141.84863
137.28801
134.92101
130.68594
137.30337
137.13885
139.8425
136.50304
144.92925
143.14787
149.10874
145.32669
144.05549
141.59224
138.95637
138.95663
140.63616
137.23572
135.86388
135.91289
136.11768
136.49713
135.54805
129.96819
127.37546
123.40293
120.71129
117.08906
116.38555
118.65444
120.99055
123.00194
123.19823
121.05693
136.43358
141.67261
139.46456
135.2171
133.63087
133.79938
140.82086
137.46437
136.76334
133.10167
136.21798
133.04598
130.52913
126.23705
128.14869
124.70949
121.90524
130.05416
128.61457
128.40425
131.83037
129.77035
127.54746
127.65122
125.87399
122.77227
122.11211
117.10625
117.06651
116.14462
129.41929
135.46791
140.79092
179.82014
209.32156
208.22716
210.88451
215.90561
213.87235
214.05219
206.74132
233.18836
235.93562
244.79737
239.4547
255.97936
262.82869
277.07879
269.06673
287.66125
291.89973
298.62118
319.43395
439.40296
447.53203
435.55331
447.22808
465.31821
470.83263
470.70173
469.22303
485.68567
506.71527
520.0056
539.6652
534.38126
519.24546
512.82864
502.79874
503.51597
489.77126
475.20402
455.68017
436.92515
426.70907
412.74771
408.00216
392.93272
385.3611
377.52673
375.29268
377.03249
375.70445
369.31628
363.59226
348.1771
332.9373
320.3425
307.80518
309.20266
303.85462
298.94429
293.89684
286.96849
279.70288
269.08625
257.43723
249.80386
245.50358
242.6819
242.49033
233.55817
226.1933
223.49949
224.74453
222.75349
247.98467
255.48934
288.30581
297.71254
301.44022
296.53663
286.36187
286.27888
278.1911
272.32102
296.18952
286.37027
283.27168
280.82656
288.81252
281.84734
272.77682
270.12776
269.33292
267.62342
269.23175
266.57234
265.75574
267.83748
261.69266
270.32318
270.49295
263.64274
260.64969
257.399
270.78621
312.77434
327.8876
314.80492
322.41671
310.60194
305.16752
309.04341
309.30959
296.71677
291.72271
280.88538
292.31213
300.8027
354.66679
363.83416
398.41744
407.29976
404.43264
394.04316
379.98436
381.21834
370.64274
381.90826
385.06767
389.47355
378.79687
368.24709
358.05659
358.18183
355.38313
353.34005
356.43004
346.88718
337.65524
345.9513
338.23978
345.00693
341.29644
338.31669
329.79407
321.78021
311.47377
302.36278
292.99973
286.81832
295.97987
288.87702
289.97866
297.50018
290.14089
281.81868
281.77235
274.94575
267.7282
271.26332
269.11594
266.97409
271.86951
300.22241
344.4208
365.67789
360.47518
374.71624
367.3858
361.90324
345.23087
329.33366
320.23768
324.05285
356.61193
352.99394
359.35437
358.68263
368.13601
360.76773
353.37789
344.01375
338.95206
342.98334
347.71739
337.79329
330.95091
324.75513
321.82691
317.48356
314.2033
305.74378
300.8328
300.79045
289.27471
279.62723
281.20028
275.16455
281.51137
274.21984
273.74271
262.92466
255.83075
249.40356
240.32687
232.79353
228.25613
231.23784
238.92513
240.81191
279.2232
281.07012
276.70797
309.4074
305.2183
304.54699
302.69435
301.84475
296.36298
285.1092
283.19426
283.07538
282.73285
281.53408
292.29307
287.55785
283.04944
275.30233
268.64788
264.91875
261.50241
260.38366
255.34269
261.14678
255.42273
252.44682
247.11847
268.85858
273.53583
280.42684
283.61992
283.2485
287.46289
315.10411
330.77239
375.56008
370.0015
369.40068
375.84277
374.67543
363.79433
357.23974
348.49761
385.28564
380.92881
398.39104
416.71882
401.6939
505.57291
544.37127
543.85833
543.90773
539.34289
564.38983
553.54413
547.5774
530.49616
558.36072
576.47781
566.50011
561.3901
583.79081
581.82647
558.79386
545.41501
540.98751
527.69983
509.2927
487.1068
479.06988
462.6606
455.6527
443.12037
442.44748
439.61052
424.27977
428.96264
427.91603
412.74345
406.87106
395.71599
397.4777
393.24644
402.71884
397.36463
394.54573
382.08461
370.63713
374.82663
375.24258
392.15382
383.34141
378.63702
375.22438
364.41264
357.92388
356.27717
348.07809
340.86965
338.06253
335.44378
341.55494
344.69245
333.27227
340.74925
334.73716
338.00522
329.80628
339.42226
348.23781
336.87154
348.60071
354.00995
363.23424
360.91179
381.17238
377.42721
423.37455
434.46423
426.39821
421.11905
416.56983
415.27985
408.10486
400.92808
397.53108
387.69886
380.74322
386.12228
386.5964
390.78952
386.59669
379.09122
382.74327
430.88589
413.84976
415.48121
411.54612
403.11854
390.37579
392.91966
395.62754
402.21272
388.35466
378.58433
393.61617
421.63644
420.96384
424.51856
430.73795
425.80524
429.20772
416.94931
406.99936
397.12512
385.44047
381.50544
378.62433
