atr
0.0
36.40357
58.4626
69.78527
90.9149
95.21883
102.18034
122.41318
135.51152
149.9557
152.96529
155.61991
176.64706
183.31513
189.06762
201.3385
203.7429
217.9584
247.77638
242.60092
253.79728
247.08462
245.305
235.69393
246.86294
250.65844
243.39641
234.98524
230.77201
231.45758
235.99632
233.22444
231.50198
237.89113
246.26247
239.93944
304.70162
357.28508
367.68543
381.68147
453.24565
459.45882
489.42605
492.32419
636.54174
712.92733
725.35824
726.88051
713.16119
704.29753
677.85413
654.57884
664.96606
693.93706
677.15084
703.13435
718.13333
723.18666
739.17333
733.69309
729.23287
718.93195
717.57967
748.21326
778.53303
785.68067
784.17277
762.03828
785.38555
754.70944
748.02305
766.0214
762.10487
759.42095
750.14946
721.61807
699.63535
686.35068
679.82563
748.67309
775.04501
855.63465
1015.75575
1050.35891
1045.32042
1027.79753
1009.23556
982.55231
997.87
990.64
953.05429
938.60469
915.91507
902.12971
875.17616
875.59286
874.81266
853.16533
835.59352
876.28184
893.72242
934.61082
965.74076
936.22785
919.67015
901.41085
879.79436
852.15548
826.52223
802.03707
834.98371
807.12059
814.2384
794.35137
793.5777
814.62715
808.30593
788.00479
779.17588
768.87117
772.49394
753.45009
725.88366
711.03482
778.58591
800.11549
774.86867
783.70876
794.57028
827.08597
819.10769
821.82357
811.14974
806.7819
787.8032
777.24582
771.97827
752.25196
723.57539
746.34858
833.75225
832.76995
821.79138
833.81271
836.03466
820.01647
806.51601
804.08415
781.92671
768.93409
766.13522
755.60557
776.63374
763.73062
750.607
759.47436
753.94047
737.8733
725.57806
738.58463
727.15073
723.32853
947.73364
1004.50981
993.21982
991.84412
979.49811
990.90253
984.88378
1000.24922
1085.43356
1107.31188
1084.95818
1064.96116
1068.97894
1054.31187
1019.74388
1029.20646
1086.96243
1091.82654
1080.1625
1070.28161
1036.29721
1117.49026
1126.26453
1093.48206
1112.01906
1089.70698
1127.01363
1151.11051
1143.46333
1095.50238
1088.38507
1054.35185
1054.896
1027.19486
1002.75023
1006.26521
987.18269
986.09822
984.48834
958.87989
939.9949
942.90312
911.44361
885.11907
870.46771
862.07716
856.28307
838.07857
805.54724
777.33672
774.07624
738.20151
730.0064
712.58452
708.08634
721.79089
693.88939
697.26872
686.9131
666.79288
670.82624
651.89151
639.47069
617.22278
633.84973
698.68618
743.62073
740.46282
730.40977
740.51264
728.43245
832.70156
851.98716
892.96308
1020.77929
1002.36291
1012.75913
994.48134
1049.42838
1054.7485
1071.37718
1216.13381
1250.69211
1263.07196
1341.04753
1402.54271
1432.27894
1400.54902
1380.65195
1385.67681
1415.41346
1439.3125
1526.15518
1578.84695
1596.78646
1688.68528
1630.04205
1622.35333
1653.42881
1634.60889
1606.61826
1583.25124
1560.15115
1561.35464
1517.46074
1467.4064
1420.1438
1384.25924
1330.21001
1307.36144
1279.12991
1243.51063
1254.23915
1218.65707
1191.52585
1259.96686
1279.48709
1250.86872
1245.87024
1208.9988
1175.49817
1153.0983
1140.17842
1135.61139
1179.72486
1158.18023
1194.82736
1178.2604
1164.45609
1180.82137
1154.98413
1124.05383
1115.24642
1152.06239
1114.38936
1099.6094
1072.71088
1068.07796
1027.14382
1005.00783
996.36441
971.6241
940.8988
898.5446
918.71999
896.7007
885.92208
916.65908
924.25343
900.00176
893.55377
859.98707
845.60371
821.27488
820.63738
797.75329
787.91377
795.47921
781.04927
768.26646
757.77529
743.83419
742.13961
749.54249
765.6116
768.44649
769.83245
757.24228
729.00354
719.01615
712.10428
755.93612
763.30997
751.48854
749.56222
740.87063
736.49773
748.14646
730.28528
752.54991
737.58634
740.54589
726.70904
724.93339
706.42387
702.45359
723.28119
717.17325
747.78516
818.72908
902.53414
895.54956
947.38745
940.33406
940.67377
936.16993
936.25565
904.15025
889.84523
881.04343
905.76604
904.31846
880.64143
898.19776
873.59363
874.27337
892.11956
861.72959
846.60605
833.19276
857.53613
840.79998
829.6757
820.19529
818.24848
795.51574
793.40033
766.82173
752.36304
772.34996
776.94854
762.88078
776.44073
760.30925
742.36216
729.61343
717.48104
704.39526
703.95774
725.9579
712.27591
746.2562
785.65504
777.54754
782.71414
777.7517
763.45801
796.3453
780.68635
762.07518
728.72909
711.32059
699.0234
704.77245
704.4037
719.19701
701.03222
692.0142
680.1589
703.30398
682.0037
681.65058
660.91482
693.59091
670.96798
654.88813
644.53683
653.16992
684.00278
659.7883
679.59699
665.25292
670.10057
686.52195
663.03253
642.05163
642.26152
620.44998
602.87141
595.99417
592.86816
595.899
584.35264
573.2946
562.05356
559.07616
572.80643
586.40954
590.10886
579.9818
577.80524
569.18844
588.4607
572.4785
556.5779
557.78662
564.08972
560.06902
567.37838
580.27706
574.26942
561.53374
553.10991
576.36277
588.039
575.70121
564.42113
602.67676
609.84271
588.22109
601.65315
607.5915
606.23925
639.13644
638.80384
655.17428
663.92826
671.7741
648.22166
672.12012
719.32582
706.64255
691.98808
675.40108
668.831
665.9195
643.49025
659.78452
649.98919
657.96854
644.30436
640.48547
649.23794
649.16737
624.5697
613.4583
675.83485
696.13236
721.99362
730.91122
778.2147
764.36436
810.69548
823.25938
847.33942
855.95232
842.55287
864.60195
851.93824
857.62265
880.50817
888.50045
942.24684
988.24778
994.00009
976.34436
953.80048
972.29902
949.46623
971.86007
983.65507
952.03971
935.00615
912.61357
898.06975
904.53191
868.85677
842.637
830.32936
801.6844
825.60409
806.41308
784.97715
762.96092
768.90371
756.33988
743.37917
740.11566
744.86954
721.09315
706.01506
734.9747
731.33437
712.94263
690.74958
695.33461
671.48
697.16928
685.37362
700.63907
674.16486
666.79237
659.76291
638.7227
630.24251
611.06519
594.43696
596.99003
595.21503
573.19467
564.8772
548.25025
545.89952
539.76813
539.32397
519.37226
517.95139
505.33557
502.09732
481.77608
465.91065
446.93131
472.39622
460.63649
458.49888
454.40111
467.6296
459.27748
438.95409
474.84809
477.13822
471.93478
488.11087
478.5408
491.17789
491.60875
482.11099
525.8302
526.62519
508.54696
500.79361
501.95406
488.16377
506.7235
500.23682
485.54634
540.15017
544.0923
547.69642
536.16025
567.10809
565.59394
561.8058
551.2811
541.38959
596.64177
612.8095
601.07739
632.07258
631.01882
624.1689
644.2947
652.35865
643.4466
651.91899
654.07334
639.79168
644.23513
644.30619
641.14003
648.43575
653.47605
674.17276
671.23328
682.0109
657.53798
645.48384
625.65999
619.49071
605.40066
622.4299
611.33062
616.042
607.92472
600.54724
582.53529
577.50348
575.77466
561.43362
545.8155
550.18225
549.0978
532.67868
568.66163
567.45865
584.92589
634.45119
665.91396
670.60796
675.87739
701.70758
733.02918
755.22781
766.63868
763.76806
755.13463
764.51573
748.96032
725.90672
718.62553
706.17371
708.73558
683.48733
671.64966
645.21754
647.072
640.52329
624.85734
611.64539
616.38786
610.75158
604.46147
617.46994
596.93208
594.76265
572.92032
568.25887
578.92538
563.47642
577.36953
606.06242
608.33368
595.67699
596.9822
638.91276
624.56256
626.50667
632.58333
915.47667
1092.8119
1136.93891
1111.94399
1127.84656
1158.18466
1217.71504
1189.14968
1229.99614
1203.92498
1217.92963
1263.58751
1252.6634
1212.68745
1204.9912
1186.07683
1147.54634
1137.43589
1111.13761
1115.69921
1082.76069
1063.40993
1038.32351
1021.3004
990.03108
963.26529
931.67849
923.60074
887.78283
873.15263
839.35601
811.02915
806.1235
773.36039
735.32608
709.3135
685.05468
687.80792
658.90878
639.6103
629.11599
606.32127
602.79833
587.38416
569.24101
555.59379
536.36995
526.36281
525.96689
524.10712
525.23375
510.21848
534.75359
528.13191
520.23106
548.50027
546.36096
570.04232
577.75644
574.05812
566.64826
553.62981
551.87268
535.44963
555.07252
