atr
0.0
0.00017
0.00032
0.0004
0.00047
0.00057
0.00085
0.00103
0.00122
0.00144
0.00145
0.00151
0.00155
0.00154
0.0016
0.00167
0.00166
0.0017
0.00173
0.00182
0.00186
0.00191
0.00187
0.00181
0.00178
0.00181
0.00177
0.00172
0.00167
0.00162
0.00172
0.00175
0.00177
0.00182
0.00186
0.00188
0.00203
0.00219
0.00243
0.00252
0.0026
0.00258
0.00262
0.00255
0.00252
0.00242
0.00231
0.00221
0.00215
0.00211
0.00201
0.00197
0.00191
0.00187
0.0019
0.00208
0.00207
0.00212
0.00208
0.00207
0.00214
0.00215
0.00224
0.00228
0.00226
0.00223
0.00222
0.0022
0.00215
0.00211
0.00205
0.00198
0.00197
0.00194
0.00197
0.00189
0.00185
0.0018
0.00176
0.0018
0.0018
0.00184
0.00196
0.00198
0.00198
0.00201
0.00206
0.00216
0.00223
0.00232
0.00226
0.00223
0.00212
0.00208
0.002
0.0019
0.00185
0.00184
0.00179
0.0018
0.00171
0.00167
0.00169
0.00171
0.00186
0.0019
0.00196
0.00197
0.00197
0.00199
0.00216
0.00214
0.00231
0.0023
0.00233
0.00228
0.00218
0.00208
0.00204
0.00195
0.00185
0.00179
0.00188
0.00183
0.00178
0.00172
0.00168
0.00173
0.00198
0.00198
0.00196
0.00197
0.00197
0.00197
0.00196
0.00195
0.00205
0.00208
0.00204
0.00194
0.00189
0.00186
0.00179
0.00171
0.00163
0.00155
0.0016
0.00164
0.00158
0.00157
0.00152
0.00149
0.00153
0.00159
0.00156
0.0016
0.00173
0.00171
0.00197
0.00216
0.00223
0.00221
0.00217
0.00216
0.0022
0.00216
0.00212
0.00203
0.00195
0.00191
0.00183
0.00176
0.00171
0.00168
0.0016
0.00159
0.00155
0.00156
0.00152
0.00146
0.00142
0.00136
0.00132
0.00129
0.00124
0.00122
0.00117
0.0012
0.00115
0.00112
0.0011
0.0011
0.00107
0.00108
0.00108
0.00105
0.00104
0.00107
0.00104
0.00103
0.001
0.00098
0.00114
0.00123
0.00128
0.00125
0.00142
0.00147
0.00147
0.0015
0.00155
0.00155
0.00154
0.00157
0.0015
0.00148
0.00145
0.00143
0.0014
0.00138
0.00136
0.00145
0.00142
0.00136
0.00132
0.0013
0.00134
0.00134
0.00137
0.00154
0.00152
0.00159
0.00162
0.00162
0.00168
0.00167
0.00163
0.00166
0.00164
0.00159
0.00153
0.00152
0.00147
0.00139
0.00134
0.00129
0.00125
0.00121
0.00117
0.00118
0.00118
0.00138
0.00142
0.00141
0.00154
0.00154
0.00185
0.00187
0.00203
0.00202
0.00208
0.00203
0.00205
0.002
0.00192
0.00182
0.00176
0.00168
0.00174
0.00174
0.00168
0.00164
0.00163
0.00161
0.00168
0.00177
0.00179
0.00188
0.00199
0.00196
0.00196
0.00199
0.00214
0.00217
0.00225
0.00222
0.00214
0.00206
0.00203
0.00211
0.00204
0.00197
0.00192
0.0019
0.00185
0.00177
0.00172
0.00166
0.0017
0.00186
0.00186
0.00184
0.00188
0.00187
0.00195
0.00201
0.00202
0.00199
0.00203
0.00201
0.00195
0.00187
0.00183
0.00177
0.00175
0.0017
0.00163
0.0016
0.00154
0.0015
0.00144
0.00142
0.00145
0.00146
0.00148
0.00152
0.00155
0.00162
0.00161
0.00163
0.00166
0.00173
0.00171
0.0017
0.00165
0.00163
0.00158
0.00154
0.00151
0.00145
0.00139
0.00136
0.00136
0.00143
0.00139
0.00135
0.00135
0.00133
0.00135
0.00145
0.00151
0.00152
0.0015
0.00153
0.00184
0.00197
0.00197
0.00196
0.00188
0.00186
0.00184
0.00175
0.00169
0.00162
0.00153
0.00151
0.0015
0.00147
0.00141
0.00135
0.00133
0.00137
0.00142
0.00142
0.00139
0.0014
0.00143
0.00143
0.00148
0.00159
0.00158
0.0016
0.00159
0.00157
0.00153
0.00149
0.00142
0.00134
0.00137
0.00134
0.00133
0.00129
0.00123
0.0012
0.00125
0.00132
0.00148
0.00146
0.00158
0.00162
0.00171
0.0018
0.00183
0.0021
0.00216
0.00208
0.00229
0.00231
0.00221
0.00218
0.00211
0.002
0.0019
0.0019
0.00181
0.00174
0.00165
0.00157
0.00153
0.00163
0.00169
0.00176
0.00176
0.0019
0.00196
0.00197
0.00199
0.00207
0.00206
0.00203
0.00196
0.00189
0.00188
0.0019
0.00191
0.0018
0.0017
0.00163
0.00156
0.00152
0.00151
0.00146
0.00146
0.00145
0.00145
0.00145
0.00145
0.00145
0.00144
0.00144
0.00149
0.00149
0.00148
0.00152
0.00151
0.0015
0.00146
0.00141
0.00136
0.00131
0.00129
0.00125
0.0012
0.00121
0.0012
0.00115
0.0011
0.00107
0.00106
0.00109
0.00124
0.0013
0.0015
0.00151
0.00147
0.0015
0.00164
0.00172
0.00176
0.00173
0.00168
0.00161
0.00155
0.00156
0.00149
0.00143
0.00139
0.00137
0.00139
0.00134
0.00132
0.00127
0.00124
0.00127
0.00137
0.00135
0.00138
0.00138
0.00137
0.0014
0.0014
0.00147
0.00146
0.00142
0.00147
0.00153
0.00154
0.00149
0.00144
0.00137
0.00131
0.0014
0.00139
0.00136
0.00129
0.00126
0.00125
0.00138
0.00145
0.00148
0.00158
0.00161
0.00166
0.00167
0.00187
0.00254
0.00267
0.00261
0.00254
0.00246
0.00237
0.00226
0.00215
0.00207
0.00197
0.00198
