atr
0.0
0.27857
0.4301
0.56295
0.66346
0.76749
0.87839
0.99207
1.0955
1.16082
1.21505
1.38397
1.46226
1.50853
1.50435
1.57118
1.59824
1.58979
1.56124
1.57258
2.04168
2.1337
2.32915
2.42707
2.82942
2.80732
2.96608
3.00708
3.033
2.94278
2.85116
2.8225
3.72804
3.85461
3.85785
3.85872
4.05452
4.09063
4.11701
4.0508
3.91217
3.79059
3.68483
3.57091
3.4937
3.42915
3.54136
3.46912
3.43347
3.31822
3.59906
4.00127
4.07404
3.93661
3.95399
3.80085
3.85293
3.77629
3.81084
3.7215
3.5971
3.82445
3.81414
3.89098
3.75591
3.63335
3.46954
3.37028
3.26669
3.13764
3.47424
3.43322
3.50871
3.60237
3.52649
3.61317
3.49723
3.446
3.36842
3.70282
3.75191
3.6532
3.68011
3.59153
3.54642
3.50454
3.54278
3.46973
4.57475
4.84727
4.72318
4.59152
4.72855
4.60866
4.57447
4.50415
4.54671
4.56409
4.61165
4.43511
4.34331
4.24593
4.1898
4.17624
4.49579
4.43609
4.76709
4.98372
4.93489
5.29239
5.65651
5.57033
5.57673
5.73268
5.50249
5.42517
5.22909
5.03487
5.0688
5.19246
5.743
6.34564
6.6431
6.80288
6.67053
6.61192
6.40392
6.21579
6.27966
6.41897
6.98761
6.85778
6.79009
6.74222
6.98135
7.2834
7.50101
7.2938
7.00781
6.80154
6.765
6.7625
7.20875
7.00098
7.22877
7.206
7.27557
7.29232
7.12429
7.00113
6.78676
6.53199
6.81185
6.61315
6.44435
6.30047
6.13972
6.27903
7.15624
7.55937
8.04013
8.02869
9.11092
9.48372
9.68988
9.45346
9.26464
8.96002
8.78859
8.67941
8.34088
7.96296
7.70918
7.49781
7.35796
7.14811
6.85681
6.66276
6.67827
6.43554
6.29086
6.21365
6.55554
6.38228
6.28283
6.41263
6.4103
6.67028
6.56026
6.5481
6.48395
6.31295
6.35988
6.16346
5.99107
5.78385
5.64429
5.63113
5.53033
5.67174
5.83804
5.72675
5.56984
5.71414
5.93956
6.35102
6.35809
6.49394
6.72937
6.53013
6.34655
6.11394
5.95866
5.81375
5.83634
5.66232
5.71644
5.65169
5.47943
5.52304
5.46354
5.424
5.40229
5.29641
5.27024
5.18879
5.20816
5.23187
5.20388
5.13288
5.17411
5.13167
5.12655
4.92823
4.79478
4.7673
4.75606
4.64706
4.57584
4.65399
5.42942
5.40946
5.36664
5.23331
5.41308
5.30286
5.13765
5.04925
5.06359
5.17976
5.22263
5.19388
5.10788
5.08018
5.00374
4.78918
5.30496
5.19746
5.3655
5.37153
5.60428
5.53898
5.45976
5.33835
5.88347
5.64751
5.44554
5.213
4.98636
4.85162
4.78508
4.814
4.753
4.82564
5.40381
5.46068
5.26206
5.15763
5.5028
5.52974
5.55333
5.60095
5.54017
5.34801
5.21458
5.21854
5.1265
4.98032
4.96102
4.88237
4.77792
4.62021
4.48662
4.46615
4.34
4.34071
4.58637
4.56378
4.71422
4.62749
4.64695
4.94289
5.04339
5.05387
5.19788
5.16589
4.96189
4.85962
4.80107
4.64457
4.77567
4.66526
4.7656
4.68734
4.58896
4.45618
4.45288
4.3541
4.19524
4.25344
4.58391
4.79577
4.90607
4.8285
4.77932
4.65294
4.5263
4.43299
4.55064
4.82559
4.63162
4.45936
4.41441
4.28481
4.18089
4.09011
4.04011
4.0201
3.93652
3.82962
3.76679
3.71488
3.57025
3.46594
3.38623
3.30722
3.29742
3.45189
3.50389
3.5329
3.47484
3.41735
3.51182
3.91098
3.98805
3.97605
4.05704
3.99583
4.2397
4.274
4.32086
4.24509
4.15329
4.09163
3.9458
3.86396
3.84939
3.778
3.65957
3.76032
3.81887
3.87609
3.83494
3.83673
3.92054
3.80978
4.06123
4.034
4.01871
3.97023
3.81736
4.21398
4.15226
4.19139
4.48415
4.46456
4.37352
4.31327
4.34304
4.24711
4.13303
4.04781
3.93582
3.97112
3.89104
3.79954
4.05529
4.06134
4.08624
4.30865
4.86089
5.12797
5.07669
5.40335
5.26811
5.21396
5.23368
5.06127
5.16475
5.08227
4.98354
5.09471
5.23795
7.56881
7.80104
7.83953
7.65314
7.60434
7.63618
7.53859
7.41012
7.30226
7.27209
7.56694
7.48573
7.30818
7.03045
6.87399
6.68228
6.44426
6.5461
6.35209
6.3598
6.11196
5.8811
5.68245
5.51156
5.32788
5.36446
5.23057
5.35767
5.40427
5.48325
5.41873
5.26311
5.13931
5.09222
4.95849
4.86788
4.70161
4.69292
4.58985
4.42272
4.45681
4.31633
4.32659
4.22398
4.55441
4.62695
4.71288
4.6091
4.61917
4.56994
4.99066
5.4499
5.73633
6.2716
6.22005
6.17148
6.16137
6.14485
6.22164
6.12224
6.31565
6.62525
6.51059
6.41412
6.21239
6.17008
6.22793
6.37379
6.18567
6.60169
6.518
6.46314
6.32077
6.20357
6.02546
6.1465
6.26389
6.20004
6.19576
6.40606
6.68063
7.18487
7.37666
8.0019
8.36248
8.26159
8.23076
7.90999
7.91356
7.92545
8.35435
9.09047
9.72615
9.68785
9.308
9.06743
8.96547
8.83294
8.94416
8.86029
9.05384
9.10499
10.46178
10.45594
10.42551
10.11584
9.77899
10.72763
10.41423
10.78607
10.87992
11.18279
11.19973
11.23618
11.77645
12.26742
12.3126
11.86242
12.32153
12.46785
12.12086
12.1508
11.94217
11.53702
11.61937
11.50299
11.28706
11.25156
12.20573
12.23175
12.45662
12.69687
12.3678
11.94868
11.69806
11.32677
11.61128
11.56833
11.32774
11.39219
11.42346
11.19321
10.78084
10.55221
10.22348
11.54823
11.36621
11.85506
12.09327
12.54232
12.14715
12.3095
12.32596
11.86768
11.57856
11.56009
11.16009
10.72936
10.25584
10.33899
10.39049
10.15189
9.72032
9.39387
9.02288
9.21553
9.60514
9.58334
9.67596
9.46411
9.28953
9.09956
8.69673
8.7634
8.45387
8.34073
8.70425
8.54466
8.34862
8.54086
8.43437
8.13549
8.31581
8.75682
8.74062
9.32558
10.17161
10.49006
10.34149
10.87924
13.62501
13.92893
13.68544
13.29005
14.01433
15.56902
15.63695
15.29788
15.03946
15.2295
15.16811
15.14824
15.3798
15.5691
15.63416
15.28672
15.36338
15.94171
15.63016
15.18158
14.74647
14.77529
14.19563
14.07237
13.59148
13.09995
12.76067
12.16919
12.06425
12.24252
12.34591
12.1212
11.81326
11.5516
11.10291
10.92485
11.20593
11.33551
10.84368
10.53771
10.10144
10.16848
9.88645
9.65884
9.35607
9.17992
8.83636
8.76804
8.35604
8.23418
7.93317
7.5608
7.23146
7.43635
7.22447
7.37344
7.21462
7.00715
7.34664
7.15402
7.25373
7.37275
7.3847
7.20293
7.23272
7.2661
6.96495
6.92531
7.14779
7.21866
7.24019
7.39303
7.15781
6.98226
6.79352
6.60256
6.62523
6.96486
6.92094
6.90159
7.16004
7.15361
6.96335
6.80669
6.69335
6.81097
6.64519
6.39767
6.22641
6.2231
6.67145
6.94491
6.91528
7.57347
7.81822
7.54264
7.56959
7.39748
7.26337
7.13813
7.58398
7.72369
7.73986
8.01487
8.00952
8.60598
8.98413
9.46812
10.11682
10.32848
10.44145
10.31706
10.17155
9.8443
9.75613
9.6207
9.96279
