atr
0.0
0.635
0.89607
1.36992
1.80993
2.19851
2.61004
2.91789
3.02876
3.24742
4.08403
7.39017
10.94159
12.26219
13.68918
14.34995
14.91495
14.90889
14.50825
14.43552
14.24298
13.70063
13.6313
13.2612
13.70397
13.31726
12.95531
12.69708
12.66014
12.36585
12.05757
11.81489
11.49097
11.41733
11.07109
10.77315
10.75579
10.51037
10.35606
10.16706
10.00298
9.71563
9.68022
9.37878
9.02315
8.67793
8.47022
8.18735
7.99468
7.95149
7.65781
7.54582
7.35184
7.44456
7.33281
7.66046
8.02114
8.05035
8.23961
8.06035
8.16176
8.02949
7.81309
7.9843
8.549
8.39264
8.05959
7.72105
7.50455
7.35279
7.01402
6.75374
6.75561
6.79307
7.04071
7.0228
7.05188
6.88746
6.79622
6.58792
6.76021
6.60662
7.57758
8.07418
8.32602
8.09702
8.16938
8.05871
8.00951
7.65312
7.52575
7.20034
7.06532
7.47065
8.10561
8.30021
8.56233
8.45502
8.48038
8.26392
8.05722
8.11956
7.88459
7.67355
7.87544
7.74862
7.53015
7.42514
7.14334
7.21382
7.09569
6.89814
6.88184
6.63957
6.38817
6.18901
6.09694
5.93716
5.67379
5.70281
5.93832
5.85701
5.7258
5.76967
5.62112
5.5239
5.40005
5.57933
6.01438
6.12907
5.97842
5.90496
5.93032
6.0253
6.19778
6.01008
6.03721
5.87599
5.68913
5.54562
5.29593
5.36051
5.62333
6.02309
6.03644
6.15813
5.95683
5.79563
5.67737
5.52827
5.45697
5.33147
5.39851
5.28433
5.15188
5.13246
5.30799
5.10671
5.09909
4.9413
4.80906
4.66341
4.98245
4.91799
4.84814
4.80256
4.67023
4.65736
4.5404
4.4768
4.28346
4.25678
4.14416
4.22743
4.31833
4.28559
4.56805
5.19319
5.33939
5.27872
5.56952
5.61742
5.50689
5.53139
5.68487
5.59738
5.51399
5.42656
5.80252
5.9902
6.64447
6.86844
6.88284
7.2162
7.22433
6.99402
6.92802
6.80173
6.6009
7.0444
7.38552
7.54655
7.98037
8.06677
8.052
8.39472
8.28009
8.40437
8.3412
8.44112
8.41961
8.02178
8.04951
7.8874
7.70473
7.47011
7.55796
7.40525
7.3563
7.21585
7.06757
7.01989
6.95204
6.80618
6.69431
7.00186
7.04316
7.04864
6.91517
7.15123
7.48471
7.6508
7.55075
7.31784
7.12799
7.13385
6.93715
6.73164
6.54795
6.57881
7.17604
7.43203
7.32546
7.39864
7.24231
7.14429
7.01612
7.19997
7.14926
7.13288
7.35554
7.25871
7.39237
7.37292
7.237
6.9715
6.9971
6.96017
6.86087
6.74652
6.56391
6.47721
6.33526
6.39917
6.86137
6.69628
6.56654
6.28036
6.34748
6.18909
6.02415
5.84957
5.76317
5.64295
5.51631
5.49371
5.38059
5.18698
5.22648
5.14173
5.00589
5.02833
5.33416
5.34601
5.42986
5.33345
5.2782
5.26119
5.31324
5.14015
5.01729
4.86605
4.89491
4.8367
4.75765
4.9821
5.10909
5.24487
5.23667
5.26048
5.28116
5.31036
5.19962
5.33322
5.65085
5.51364
5.39124
5.19472
5.30153
5.17142
5.40417
5.35888
5.63753
5.52913
5.67705
5.47012
5.61583
5.40112
5.25033
5.14888
5.04396
4.94439
5.41908
5.38128
5.37119
5.47896
5.39475
5.43084
5.35292
5.16772
5.19074
5.00568
4.95813
4.8347
4.69579
4.61966
4.58611
4.59139
4.68201
4.53686
4.97709
5.13372
4.98846
4.87
4.81143
4.76132
5.02266
4.87675
4.82199
4.62827
4.75982
4.61627
4.52225
4.34137
4.3127
4.30037
4.20034
4.3146
4.17142
4.1956
4.33877
4.30815
4.14042
4.06968
4.04113
3.92319
3.87011
3.73938
3.78728
3.73962
3.98036
4.05177
4.33664
5.24688
6.09353
6.02899
6.22906
6.40199
6.5147
6.48223
6.33992
6.61707
6.69514
6.9312
7.2304
7.34251
7.30733
8.12324
7.86944
8.12876
8.00242
7.87011
8.08153
9.05856
10.42366
10.52197
10.41826
10.74053
10.75049
10.4276
10.66563
11.88665
13.40332
13.51523
13.98771
14.25287
13.89481
13.61233
13.71644
13.89313
13.59576
13.29392
12.8165
12.32175
11.78448
11.22273
11.21397
11.44011
11.55225
11.34351
11.26326
11.45089
11.35654
11.06179
10.98451
10.70562
10.27379
9.97709
9.64873
9.34596
9.19982
9.06626
9.03296
8.7356
8.83235
8.56861
8.26442
7.95053
7.84407
7.57378
7.59136
7.25627
7.06939
7.06015
7.20585
7.03829
7.3377
7.39001
7.64001
7.79501
7.82536
7.52855
7.63437
7.42906
7.29698
7.3622
8.0549
7.81883
7.54892
7.41899
7.49621
7.24648
7.09244
7.16656
7.02823
7.02407
7.07664
6.90688
7.11139
7.14843
7.0864
7.00309
7.08144
6.88419
6.74175
6.4702
6.61375
8.07848
8.67931
8.51721
8.6967
8.43122
8.10542
8.1736
7.93906
7.73627
7.76368
7.3927
7.83608
8.43636
9.68305
9.6164
9.7738
9.8821
9.84481
9.51232
9.18216
9.25057
8.81696
8.98932
8.96437
8.8412
8.83397
8.47226
8.30424
8.30965
8.14468
8.57863
8.72016
8.658
8.51743
8.61547
8.31008
8.42293
8.18986
8.87845
9.10784
8.89871
8.52452
8.38134
8.23267
8.08248
8.3823
8.55
8.43142
8.75418
8.69817
8.34687
8.33709
8.48087
8.26795
8.39881
8.49175
8.33734
8.63111
8.90888
9.93825
10.58837
10.36778
10.49079
10.74074
11.09497
10.64604
10.1949
10.06026
10.12953
12.91528
12.93418
13.46174
13.47019
13.50018
13.00945
12.73449
12.41488
12.37025
12.36666
12.00404
11.48375
11.29134
11.18625
10.89008
11.32865
11.37446
10.97129
10.78334
10.65381
10.21354
9.79114
10.06178
9.79522
9.84413
9.59598
9.46698
9.1572
9.04026
8.75738
8.46257
8.46096
8.1766
8.1597
8.22187
8.14459
8.32712
8.24947
7.95593
8.5348
8.73945
9.03378
9.07779
8.88867
8.77162
8.5615
8.3464
8.11451
8.0299
7.84991
7.88349
7.64967
7.88826
7.66553
7.47085
7.2615
7.24997
7.29497
7.35533
7.47352
7.51112
7.53033
7.46102
7.83595
7.63338
8.68671
8.5948
8.54374
8.32991
8.39206
8.36477
9.11943
9.01018
8.89517
8.7298
8.99481
8.81947
8.43165
8.13082
8.26933
8.11081
8.40289
8.41697
8.14933
9.40224
9.5985
10.01575
12.38534
12.84568
14.19027
14.18382
13.78569
13.90743
15.27047
15.75258
15.49168
15.54299
16.85849
16.91503
16.42038
16.21535
15.9364
15.58951
15.10026
15.98024
16.08166
15.66868
15.83235
15.49075
15.4707
15.44422
15.38249
15.3416
15.6472
15.00954
14.62743
14.3769
14.93069
14.41707
14.85728
14.53033
15.11531
14.95564
14.66667
15.13548
15.33223
15.49778
15.18009
14.77437
14.2462
14.47575
14.28891
14.30185
14.23243
13.87226
13.73424
13.63465
13.70575
13.64248
13.09802
12.97244
12.80584
12.56614
12.13427
12.17897
12.44547
12.30579
12.03252
12.05163
12.0408
11.57788
11.59446
11.52771
11.52074
11.56568
11.38528
11.23776
10.94435
10.75118
10.83895
10.42545
10.48078
10.28144
10.23348
10.79394
10.62938
10.94585
10.79829
10.74198
10.73256
11.35809
11.06751
10.8734
10.63744
10.38263
9.94315
10.21364
10.04838
10.16493
10.011
9.80522
10.33056
10.59266
10.57033
10.41031
10.55885
10.97679
10.59845
10.17285
9.93836
9.83419
9.60461
9.62356
9.62688
