atr
0.0
1.46536
1.88033
2.27995
2.71495
3.16603
3.44274
4.50255
4.89736
5.42184
5.63456
5.63745
5.98263
6.2928
7.0176
7.85063
8.1588
8.1021
8.52266
8.65926
9.1111
10.59566
12.49954
13.00636
14.35912
14.6074
15.25366
15.20518
17.36767
18.00069
19.27636
20.74876
21.18456
21.19888
20.5111
21.59852
21.6522
22.00776
21.47756
21.29595
20.82624
20.35936
22.46405
22.70769
22.48286
21.92122
22.07935
21.8269
21.0789
22.61827
23.47196
23.03325
23.38802
22.9053
22.87385
22.60715
23.20378
22.6928
21.80903
20.81267
20.07926
19.02396
18.54796
19.68454
19.15207
18.91192
18.3775
17.50839
16.96136
16.50698
16.3897
16.26293
16.09772
15.52038
14.85714
14.31985
13.76022
13.6827
13.58179
12.91845
12.74106
12.50313
13.13398
12.77583
13.70899
13.82763
13.72066
13.41526
13.13238
13.96292
13.63807
14.65142
14.36025
14.16059
14.07162
13.55508
13.23078
13.37073
14.03353
14.8815
15.21853
14.78685
14.6335
14.25397
13.90976
15.70263
15.64244
15.17155
14.93359
14.47619
13.8611
14.32924
14.00822
14.01906
13.54913
13.12598
12.80126
12.55867
12.03127
12.16296
12.01489
11.89026
11.65774
11.62076
11.78642
11.52025
12.18809
12.80037
13.10463
13.1018
12.84381
13.00997
12.82533
12.5753
12.32778
12.7633
12.51628
12.4944
12.37158
12.37397
12.90654
12.94036
12.80962
12.45929
12.26541
11.75967
11.33327
11.92018
12.67516
13.31765
13.05103
12.52917
12.6003
12.431
12.96307
13.13356
12.66117
12.28144
11.77527
11.61989
11.16275
