atr
0.0
4.59571
10.61173
16.48947
22.31522
27.61628
30.39511
35.26975
38.61619
42.29147
44.00065
50.06774
53.88433
54.68545
57.00649
57.96103
58.51953
59.00099
58.01306
57.30784
57.29942
59.13518
67.9341
71.89952
71.65741
71.07545
73.87792
74.87164
74.86367
74.28626
74.86438
72.96764
90.68424
95.88322
96.93156
101.13217
110.51273
114.18967
118.15398
116.44227
113.13425
109.61109
107.68744
107.15262
110.35744
107.67833
107.12774
104.61076
107.0307
105.08351
115.78826
119.37481
118.70233
117.28145
120.97706
116.3787
118.85307
119.62928
117.23362
115.0555
112.48011
122.76153
122.45428
122.3754
118.60144
114.6742
110.07033
105.97173
103.64018
99.93945
106.72949
116.38596
127.04053
129.07478
132.20587
136.97188
133.79888
134.36468
131.14006
142.63005
141.37219
135.58418
136.54031
133.106
133.78486
131.95237
130.59006
127.33505
129.23612
136.8614
134.43987
127.80845
133.99999
132.99928
141.51576
138.44749
136.23267
132.53891
137.24755
137.33059
134.92626
131.00295
128.86703
132.87867
138.42662
137.71258
142.30454
148.4585
160.71146
170.94636
168.02233
178.13002
181.12074
216.39783
219.42012
220.41369
217.14414
215.94027
228.51025
233.6838
257.13496
254.60961
261.69035
261.92675
254.97699
252.29434
243.46689
235.08497
239.09961
241.10893
242.94115
239.80249
238.18017
240.78159
247.7579
242.20377
235.34064
225.7106
217.76341
210.76531
222.42493
218.72101
214.06522
209.73342
202.99675
201.65698
199.31577
193.65535
191.29783
186.56298
179.02991
174.47278
173.34758
167.60847
165.69429
162.08827
154.43911
152.92917
159.01209
163.36837
173.84205
175.48691
205.1957
225.96744
253.02548
248.58723
244.60528
236.41919
234.81568
235.42313
228.80148
218.89423
210.44178
205.49451
197.94205
192.68476
188.85013
182.6337
182.98986
175.88344
171.63534
171.1721
171.31624
168.2265
165.49604
171.88204
173.53332
183.63237
177.92006
176.64862
179.02087
174.30509
175.66473
171.68867
168.4902
164.00804
157.87889
158.14112
155.26247
156.14729
167.13677
161.71486
156.25665
173.22403
189.37946
207.58093
227.74229
226.8757
234.25315
231.05364
227.04766
224.16712
218.52446
211.41057
211.08339
204.50529
201.89348
197.71752
190.50984
184.29342
177.87889
174.67112
172.40675
166.02198
168.37684
161.53564
159.09881
159.78246
161.273
160.53922
162.85784
165.04443
165.2984
159.94565
157.49382
152.27783
146.17442
143.16053
138.76121
136.82541
143.21788
141.60089
139.58797
135.41097
134.26376
130.02349
125.50538
120.66428
116.99683
114.78777
118.50793
122.90022
123.72378
127.68994
131.28351
129.84041
135.62252
140.29163
146.84222
150.53206
157.75335
160.16454
156.91493
153.73172
162.11731
156.01821
151.64549
146.14009
141.59152
140.63498
139.32462
142.44429
143.06399
154.27442
178.31839
181.33636
181.80305
184.24212
190.25054
190.85764
187.58209
193.34409
196.23094
190.83587
186.18188
179.9546
183.06427
181.76468
181.84863
176.95302
172.74923
167.545
163.8625
167.42089
164.20226
162.62567
162.50169
160.56443
161.94268
162.56463
158.69073
155.00425
155.07538
154.96499
162.86178
161.94451
155.26133
149.49981
146.32125
142.43187
138.13103
134.03238
132.58578
130.54108
127.24315
122.20792
120.0145
119.52775
115.90077
119.12214
132.20342
137.43174
141.18448
140.00844
137.06713
133.7659
133.49191
131.8482
137.11619
149.32217
144.78988
139.66774
140.13076
134.62571
130.92387
129.48574
125.26961
127.72893
125.949
125.83979
122.10123
119.31472
117.19581
115.65896
118.05475
117.84727
119.08389
121.70362
123.43336
123.41526
120.83488
118.04311
117.08217
118.4663
116.63442
114.54411
112.06381
110.22783
116.35584
114.25899
114.20835
113.23775
111.31006
111.67434
108.63474
108.54083
111.02863
109.68873
106.74525
104.65273
109.26039
112.52751
110.47126
108.52974
109.50404
112.32518
119.66696
125.29646
125.121
129.59807
126.62678
139.15344
137.69891
135.00613
135.81783
136.15442
134.47481
134.57304
134.8514
132.2913
129.77835
131.31632
129.23944
128.69591
128.32763
137.93494
139.43173
142.04232
150.11359
157.74833
181.96631
208.45586
210.83329
217.05449
209.11202
208.81402
206.04374
199.41347
200.81251
195.71376
189.48634
207.65732
230.46251
296.49233
301.02859
311.14798
305.94741
310.95545
309.15292
304.75343
305.77104
306.34025
305.39809
329.59251
331.76447
324.02487
316.83309
314.5693
310.02864
301.79588
291.31046
283.36257
280.59096
273.6516
268.69934
260.77296
255.04918
250.88067
247.38919
242.23925
248.86787
252.49374
255.3949
251.29598
244.68627
248.88439
252.83622
246.90506
244.31041
238.1211
230.29602
221.16488
215.01238
215.96579
207.49537
207.75713
205.96162
207.49651
201.30104
193.45168
200.51513
199.01405
193.08519
201.79125
200.02045
204.27827
203.25839
195.45279
191.65474
187.90869
202.34306
204.89642
203.8481
200.77609
206.97066
201.66204
196.55332
191.74451
188.58705
188.96226
192.76281
188.89404
199.42232
198.23073
199.43496
194.42032
189.69101
186.11523
181.37414
185.04456
181.58995
180.24709
195.33087
194.64438
192.94264
192.12817
195.65615
190.23643
182.5374
183.07044
176.9247
173.16436
170.07048
168.3133
174.14806
180.42606
179.83563
174.21094
174.6473
171.31178
172.5438
178.47781
188.39225
196.27209
205.68623
234.41935
241.85726
238.20602
232.17917
226.66565
234.17882
227.13748
222.4748
214.12231
211.52572
205.29817
200.02687
203.99281
219.63904
223.45625
218.98009
221.66437
218.57477
212.16514
212.15335
206.17382
206.19355
200.30544
195.25434
194.72831
192.59986
202.46059
202.14126
211.61831
216.24843
210.71997
205.32497
202.07962
197.60893
192.84829
187.80699
186.83649
185.92531
186.59422
183.7382
177.86047
177.38972
175.57332
189.90951
182.77311
187.32432
210.57258
225.27168
228.48014
231.2937
229.62986
234.22773
231.70932
239.13008
236.42151
227.60354
219.74829
227.10698
230.8822
233.89061
224.86057
217.92838
213.2785
212.30361
219.69406
221.96234
224.86575
215.18462
215.33144
217.66419
210.52318
208.47724
200.15672
197.4791
210.81702
210.02366
210.16554
219.463
222.3185
213.09361
214.20978
225.02551
226.2344
226.70694
235.82216
240.48558
233.11232
248.49216
316.527
332.02222
326.6492
316.89997
331.34283
399.5462
405.10933
394.99509
401.82616
403.20715
399.43449
398.6006
407.98627
411.07582
425.06469
417.77436
411.3369
427.57427
417.73896
406.60261
404.00385
402.82072
387.72924
378.03429
368.6947
352.13579
346.35609
331.50709
326.34087
331.93723
349.656
345.24557
333.64732
331.35537
320.06927
314.05075
316.62213
320.34912
308.16418
299.00602
285.99916
297.71351
308.81397
296.57583
295.33827
288.82483
278.44734
269.38824
256.47408
247.77593
237.64908
225.95272
215.18038
212.72821
203.8012
216.20611
207.47567
203.87598
209.57127
203.55975
202.90548
206.66723
203.93029
198.2817
196.208
197.14672
189.6141
192.54666
189.21404
193.0559
189.48833
193.64774
191.38861
185.49157
178.42289
171.77196
172.58897
185.30833
183.4813
184.03692
188.74857
193.08796
195.72239
193.46579
192.06395
194.13081
187.39504
180.36254
175.84021
177.57877
176.15814
178.15827
175.57554
183.89229
185.07927
180.01575
178.76819
178.1269
176.09426
175.23753
180.53842
180.78353
178.04899
176.18406
180.6752
197.90483
229.9902
264.34161
277.7115
290.65354
293.13114
291.12177
293.4395
286.53811
285.1361
285.95638
282.68807
