atr
0.0
77.46857
115.30082
128.98004
156.91861
178.49371
247.36987
265.07703
311.19795
321.01596
335.76696
344.96432
382.46687
383.36209
389.2998
395.70624
401.05937
423.84084
420.56078
417.1093
409.95578
402.09822
393.2862
389.2829
414.57627
405.81796
399.77668
385.41763
390.97994
386.62423
387.35679
378.54416
394.62172
438.16517
444.31194
461.39609
462.42494
462.84459
472.60569
481.901
491.65521
476.81198
479.77041
496.15038
493.51321
482.37584
468.09828
451.33269
481.78178
483.54237
471.08863
481.86015
478.97943
467.12661
458.97757
451.79489
466.59882
470.77034
464.45174
458.63876
462.45456
484.85424
478.14822
470.8862
478.56219
462.2856
465.83663
457.35687
455.49281
455.4569
442.7114
439.34702
444.54152
443.22926
462.27646
475.85171
474.8573
472.7475
486.41196
478.50325
565.2723
592.15428
590.30255
592.18522
602.86985
589.94843
624.81926
637.57431
634.19043
609.6054
613.2393
606.57864
593.09659
581.29112
592.2489
588.55755
577.33915
588.2435
576.2261
570.08781
551.59511
537.55689
544.60283
530.90548
522.0758
524.64182
519.69883
506.7182
515.13476
516.26156
504.34216
498.08701
498.80722
478.67813
488.07184
485.07599
472.14628
457.25797
447.36955
455.78529
470.59063
523.14273
551.72968
545.60613
539.05783
546.12513
540.57834
525.71274
516.87183
515.6667
513.39265
511.52317
518.47366
506.80269
502.71321
519.08084
516.09792
514.8295
506.05953
504.16671
511.48909
490.88415
498.69171
537.96588
564.5426
601.9967
592.99694
577.20787
601.58302
595.5428
582.82975
590.03691
584.16141
570.70846
568.06142
570.04561
582.35949
593.46596
589.44196
605.57182
626.13812
618.7454
609.99358
599.85118
616.42253
592.3902
589.21162
573.14936
566.44155
560.22929
555.99863
552.61373
562.55703
553.18296
557.48346
554.6025
537.08732
532.77894
537.96259
513.67812
772.49325
932.40802
957.97245
948.07942
968.14517
963.04695
954.42288
921.6641
959.02452
954.92063
942.36701
1032.08937
1048.65798
1041.87027
1023.30525
1039.49773
1014.47932
996.54723
1038.05028
1019.00669
1039.31979
1047.9398
1046.44624
1048.99794
1093.90595
1120.33481
1086.63803
1065.0096
1067.48892
1045.59042
1055.17396
1018.81368
1005.39485
966.80522
954.99056
933.82195
927.65466
900.96076
875.89213
856.40984
847.31271
829.51037
809.11392
790.17006
775.3272
752.00955
763.22315
738.32364
835.11052
822.24263
848.38244
894.94584
909.59256
889.28809
859.21466
854.26218
853.29346
840.42607
804.43063
786.41487
805.76024
787.06522
768.38771
748.64573
732.3546
720.72999
711.78428
719.51754
741.44057
737.19982
724.95698
807.64648
811.88601
797.3713
809.04621
806.04076
798.43285
778.8105
843.10261
841.28885
842.84322
820.99228
849.1514
847.71201
840.57758
826.9749
817.85598
789.44769
787.48857
772.06225
761.20066
733.4699
710.43633
711.02945
705.54592
690.4355
766.38582
757.25683
772.56706
749.18512
758.86333
730.92095
715.35374
706.39919
679.31996
681.86853
660.82721
641.28312
626.99647
614.82244
594.19012
590.0644
579.22694
595.30787
615.78088
608.08439
607.90765
617.27139
645.08915
641.34421
627.51034
612.47174
606.98519
596.06982
573.78054
559.79479
542.20159
553.25719
543.49811
526.03324
537.10301
533.38994
519.49566
503.37168
498.14513
566.17834
589.96917
587.99494
590.91102
590.07023
576.0295
562.65525
573.02702
605.57295
606.57559
623.39805
625.35319
617.32796
603.16025
591.51023
577.83093
558.21944
560.73733
562.75038
564.19107
603.65028
749.32097
747.82804
763.07176
751.42377
730.39208
721.7505
717.31261
703.45956
694.78245
673.16513
671.22548
653.2258
654.97396
641.32225
640.65066
623.51633
604.42945
588.95163
571.67866
576.47947
584.67593
587.39479
613.63659
620.76041
614.21538
660.69214
679.89913
669.26348
670.36609
670.47637
653.21377
636.44636
631.58447
616.0913
735.36835
751.63704
752.02011
739.31438
773.50621
753.24077
766.73071
744.84138
735.24414
715.10456
710.83637
685.53877
674.59386
659.99787
684.74517
673.57551
686.65226
673.55924
700.6993
726.79863
722.84302
720.25923
712.94071
703.05066
706.60419
705.5396
691.85534
689.88711
687.4016
663.30505
649.85755
676.32773
670.10289
664.90768
652.26142
641.25703
625.83224
606.65566
592.37811
582.11753
573.93056
553.10124
540.35615
558.24857
563.11867
552.43805
546.60676
549.51485
561.79736
576.13826
582.9691
599.18559
602.74377
582.76207
570.67835
557.46418
560.62103
542.21381
536.34568
527.35742
524.83117
525.56538
532.94285
516.31479
523.18945
514.45949
499.55524
481.02986
492.66701
510.81151
500.03855
491.26722
479.72385
483.64572
493.81888
535.40039
586.04465
595.06574
617.62176
663.49378
680.25565
707.62882
702.60462
696.70429
731.08255
726.21023
705.45164
709.96367
704.5284
682.53566
660.4174
669.04187
656.21888
644.70325
649.98873
648.96096
704.92446
699.35557
745.58518
766.46338
769.36242
765.20868
735.71663
720.6833
704.02663
698.56902
836.62837
834.96992
817.04707
803.91585
775.57686
762.22137
756.69199
734.6547
707.85508
709.48615
719.92785
702.87943
736.17661
710.08829
720.21198
692.42612
690.51497
669.02105
676.65097
656.4109
678.53941
661.22516
670.40122
673.94399
674.47014
661.29727
705.32104
725.43168
811.24656
847.6518
869.65667
860.88834
848.84346
852.3225
878.2116
918.69649
967.0746
958.61784
1037.77085
1107.41365
1459.19625
1462.79723
1438.13743
1431.62332
1466.50737
1419.18256
1382.91881
1372.15889
1360.38826
1341.38195
1328.78681
1351.30061
1396.68343
1392.88961
1487.09107
1533.7617
1557.19658
1535.85111
1673.79103
1818.21667
1860.57048
1969.3283
2090.62128
2053.27905
2142.5484
2183.4378
2171.59796
2110.03668
2050.43834
2031.90917
2070.27281
1999.0826
1928.9467
1849.33194
1868.04466
1863.59433
1784.07545
1725.82434
1676.0976
1630.96349
1604.7361
1549.96709
1516.89158
1484.89004
1447.86075
1403.43141
1372.27131
1417.37122
1388.91613
1389.70784
1361.15728
1317.98533
1265.77423
1238.13965
1198.63896
1188.73617
1169.67073
1159.32139
1172.79772
1126.72217
1075.74702
1043.61009
1026.12222
1018.22992
970.94064
934.00202
937.17688
960.15639
957.04522
949.51556
983.33588
983.20189
979.47318
972.91152
961.01499
989.4332
980.20154
962.88072
966.99924
987.14215
1018.70343
1073.71961
1112.27535
1121.2714
1160.84201
1153.39115
1141.00679
1181.2713
1167.46478
1250.02015
1232.93371
1237.82059
1200.29055
1199.34551
1181.62512
1182.92118
1212.75752
1234.7127
1201.45322
1178.62871
1137.53023
1118.81021
1113.4302
1131.54232
1121.3443
1118.09328
1139.08233
1102.60931
1088.09936
1066.0044
1035.56552
996.98012
987.67226
982.41567
976.86741
950.15473
917.92654
920.21964
930.5161
909.84923
900.86
910.89786
894.33087
864.52152
833.42498
804.01391
793.52292
782.262
806.97971
852.29616
866.44286
840.26837
872.99206
899.24691
894.48071
930.58923
952.57571
933.34173
930.86446
925.082
916.26115
888.47392
896.38078
885.1393
900.15221
940.20491
939.8017
933.93158
922.86218
934.61774
930.14504
901.87254
880.82807
894.3125
946.20232
924.49715
908.04021
867.19663
857.28472
832.21653
817.86963
801.47395
817.64724
802.101
798.13736
787.55612
773.75283
767.35477
782.82443
814.94125
823.84759
813.05348
793.86252
785.79662
803.99329
784.6902
779.43447
775.57344
785.96533
