atr
0.0
0.01214
0.01842
0.02996
0.03782
0.04083
0.0422
0.04704
0.06154
0.06643
0.06883
0.07463
0.08001
0.08787
0.08945
0.08949
0.0931
0.09145
0.08991
0.08849
0.08646
0.08528
0.08562
0.08807
0.09607
0.09635
0.10661
0.10542
0.11932
0.12151
0.12855
0.12794
0.12308
0.12429
0.12613
0.12426
0.13539
0.13215
0.13556
0.14017
0.13658
0.13611
0.13425
0.12966
0.12825
0.12266
0.13319
0.13296
0.14132
0.15337
0.15956
0.16102
0.1538
0.14853
0.15292
0.15271
0.15038
0.15106
0.15242
0.1601
0.15509
0.15616
0.15786
0.16016
0.158
0.15672
0.15267
0.14748
0.1448
0.14017
0.13801
0.13601
0.13773
0.13718
0.13523
0.13343
0.1339
0.13291
0.12913
0.12633
0.12874
0.14311
0.14361
0.15335
0.15525
0.14916
0.14565
0.15525
0.15059
0.14483
0.14377
0.13993
0.13994
0.14065
0.13489
0.13097
0.13447
0.1313
0.16192
0.16821
0.16405
0.16519
0.16411
0.1631
0.16288
0.16982
0.1834
0.18387
0.17931
0.1765
0.17318
0.17081
0.17789
0.1809
0.18369
0.192
0.18615
0.18428
0.18754
0.20629
0.2087
0.21022
0.20735
0.20539
0.20287
0.1998
0.19767
0.20498
0.20463
0.21144
0.21705
0.2144
0.23195
0.26752
0.29627
0.31582
0.32541
0.33002
0.32288
0.31124
0.2983
0.28342
0.27603
0.27203
0.26831
0.262
0.25472
0.26152
0.27356
0.26545
0.27077
0.27143
0.27061
0.28343
0.3189
0.33612
0.35282
0.36191
0.36034
0.37032
0.36673
0.35982
0.3484
0.36137
0.36199
0.34756
0.33631
0.323
0.34707
0.36014
0.3687
0.37879
0.37673
0.3784
0.37137
0.35413
0.36312
0.35504
0.34111
0.32889
0.31539
0.31572
0.30674
0.30126
0.29046
0.29114
0.29034
0.2796
0.2682
0.25619
0.25218
0.24345
0.25606
0.24777
0.3265
0.34889
0.34826
0.33481
0.32661
0.339
0.33764
0.33424
0.32322
0.31442
0.31339
0.31457
0.33853
0.36292
0.36914
0.36563
0.36952
0.35598
0.3527
0.34536
0.36141
0.36202
0.35259
0.35526
0.3606
0.35199
0.37256
0.45952
0.4567
0.5055
0.54082
0.56291
0.5677
0.57929
0.58149
0.57924
0.56501
0.55322
0.54799
0.52028
0.50097
0.48376
0.46563
0.46023
0.44593
0.44979
0.43052
0.44763
0.44708
0.45015
0.43799
0.42457
0.41852
0.41434
0.41475
0.40941
0.40374
0.4049
0.40241
0.39509
0.40258
0.41311
0.43503
0.43682
0.43347
0.41537
0.40427
0.39254
0.38378
0.38494
0.3753
0.36707
0.35085
0.33579
0.32323
0.31514
0.32692
0.325
0.32464
0.31717
0.30523
0.29271
0.30037
0.30392
0.29935
0.2944
0.28551
0.28369
0.27414
0.26527
0.3199
0.33062
0.35986
0.40273
0.40468
0.40434
0.40617
0.40288
0.39553
0.4037
0.41344
0.45391
0.4522
0.4699
0.48491
0.50241
0.53367
0.56269
0.56464
0.55646
0.54028
0.51526
0.48846
0.47785
0.46372
0.46345
0.44249
0.44803
0.44103
0.43953
0.4367
0.43622
0.43435
0.42047
0.41758
0.40989
0.4149
0.40598
0.38912
0.37419
0.36032
0.36815
0.35685
0.35636
0.35591
0.35834
0.35703
0.34867
0.33948
0.34309
0.33501
0.32751
0.34626
0.3451
0.33259
0.32598
0.31055
0.32123
0.31757
0.31346
0.30392
0.3165
0.32461
0.32571
0.32316
0.3165
0.39461
0.51285
0.55622
0.57649
0.57103
0.5531
0.5343
0.51185
0.51172
0.52231
0.54072
0.54424
0.53322
0.51656
0.50895
0.49188
0.47389
0.46861
0.45657
0.46396
0.45725
0.47744
0.50191
0.51892
0.52828
0.6134
0.64102
0.63952
0.64384
0.64428
0.61826
0.61552
0.60584
0.61828
0.60626
0.58367
0.58555
0.57873
0.56739
0.56401
0.55586
0.54759
0.52776
0.54578
0.55965
0.54396
0.54511
0.57403
0.5766
0.59398
0.60227
0.58496
0.5639
0.53576
0.51392
0.49864
0.49302
0.50852
0.49863
0.48515
0.46693
0.46715
0.45949
0.46096
0.45946
0.44664
0.45831
0.46057
0.44696
0.45004
0.44075
0.43498
0.44605
0.44419
0.44246
0.43586
0.4233
0.42092
0.443
0.43564
0.42238
0.41507
0.40042
0.39968
0.39041
0.39681
0.39133
0.3948
0.37946
0.3795
0.36668
0.35549
0.33366
0.34197
0.32898
0.32048
0.3483
0.45985
0.48486
0.50094
0.49873
0.47882
0.47676
0.462
0.44185
0.43101
0.42093
0.40444
0.40341
0.40245
0.3887
0.3838
0.40638
0.41164
0.40509
0.39616
0.43072
0.43853
0.42363
0.40623
0.38864
0.38159
0.37077
0.35928
0.35505
0.34897
0.34833
0.35559
0.3752
0.36625
0.35438
0.34692
0.34571
0.34531
0.34064
0.33774
0.34076
0.33213
0.32698
0.31791
0.3102
0.30733
0.29823
0.29407
0.30093
0.30157
0.29503
0.29825
0.28909
0.29129
0.28406
0.27377
0.27136
0.27197
0.27255
0.26379
0.25638
0.25092
0.26586
0.27044
0.26684
0.27278
0.26186
0.26387
0.26717
0.2638
0.25639
0.25236
0.24719
0.24168
0.23656
0.23109
0.22958
0.22175
0.22163
0.23008
0.23936
0.23512
0.23619
0.22717
0.22666
0.22618
0.23717
0.23737
0.22828
0.23054
0.23122
0.2297
0.22758
0.2249
0.21455
0.20422
0.20321
0.19512
0.20261
0.206
0.22628
0.22655
0.26822
0.26478
0.26015
0.25014
0.24727
0.2489
0.24326
0.23803
0.23531
0.2385
0.23504
0.23111
0.2346
0.2407
0.24065
0.2606
0.27056
0.27123
0.26686
0.25994
0.26137
0.26771
0.27644
0.28598
0.28484
0.27878
0.26601
0.29058
0.30268
0.30463
0.30216
0.29415
0.28885
0.30608
0.30279
0.29759
0.32062
0.32129
0.35191
0.35677
0.34343
0.33747
0.3348
0.34088
0.33582
0.33826
0.3341
0.36809
0.38608
0.37708
0.38014
0.36728
0.35819
0.36403
0.36303
0.3621
0.36623
0.35936
0.39798
0.42098
0.43162
0.42579
0.46752
0.46913
0.46705
0.45511
0.45618
0.46502
0.47538
0.46571
0.49101
0.51166
0.49511
0.47974
0.46119
0.44468
0.43577
0.42465
0.41931
0.41222
0.4042
0.39319
0.40296
0.41275
0.40041
0.4011
0.40745
0.39549
0.39224
0.38208
0.36693
0.38715
0.39949
0.39453
0.40278
0.39901
0.39337
0.39027
0.37596
0.36911
0.3606
0.35556
0.35873
0.37739
0.38115
0.38321
0.39013
0.41155
0.42858
0.42511
0.41974
0.41333
0.40238
0.38578
0.38037
0.37606
0.37634
0.37517
0.37694
0.38288
0.3741
0.36381
0.34996
0.33997
0.34425
0.32895
0.3176
0.31205
0.31476
0.40014
0.41727
0.41747
0.41979
0.40981
0.40625
0.39152
0.37498
0.36962
0.35465
0.34003
0.3336
0.34477
0.34872
