atr
0.0
0.00714
0.01092
0.01442
0.01697
0.01718
0.01953
0.02456
0.02709
0.02801
0.03101
0.03594
0.03909
0.03987
0.04345
0.04606
0.04848
0.05716
0.06237
0.06148
0.06138
0.05914
0.06134
0.06196
0.06182
0.06169
0.06657
0.06681
0.06704
0.06582
0.06969
0.06972
0.07188
0.07246
0.07228
0.07212
0.07197
0.07754
0.077
0.07722
0.08956
0.09888
0.09824
0.09694
0.09501
0.09394
0.09009
0.08651
0.08676
0.08485
0.09522
0.09627
0.12225
0.12852
0.13006
0.12577
0.13035
0.12819
0.1276
0.12634
0.13018
0.12945
0.13735
0.13682
0.13776
0.13507
0.13042
0.12825
0.1248
0.12231
0.12001
0.12
0.11929
0.11434
0.11475
0.11155
0.10572
0.10317
0.09866
0.09518
0.09553
0.09656
0.09681
0.09561
0.09735
0.09397
0.09154
0.09
0.08857
0.08653
0.09464
0.09645
0.09527
0.0949
0.09526
0.09274
0.08969
0.09686
0.09708
0.09586
0.09687
0.09709
0.09587
0.09545
0.09863
0.09659
0.09469
0.09293
0.09629
0.09441
0.0941
0.0938
0.09425
0.0968
0.09774
0.09648
0.09244
0.10155
0.10501
0.10608
0.10422
0.10535
0.11711
0.11732
0.11608
0.11707
0.11371
0.10987
0.10988
0.10989
0.12418
0.12889
0.12968
0.13685
0.13493
0.13458
0.13639
0.13236
0.13291
0.13342
0.13174
0.1309
0.13727
0.13889
0.14683
0.14705
0.14441
0.13838
0.14778
0.14937
0.14798
0.14313
0.13648
0.13387
0.13431
0.13329
0.13805
0.14105
0.13954
0.14386
0.15787
0.1616
0.16434
0.1626
0.16384
0.16714
0.17163
0.17366
0.18554
0.19157
0.2036
0.2012
0.19612
0.18925
0.1843
0.18328
0.17876
0.17242
0.16939
0.16301
0.16208
0.16764
0.17353
0.17256
0.19523
0.19772
0.19288
0.19767
0.20356
0.19687
0.19352
0.18899
0.18406
0.17734
0.1711
0.16817
0.16544
0.15934
0.15653
0.15463
0.15073
0.15139
0.15272
0.1511
0.14816
0.14615
0.14
0.13857
0.14581
0.14326
0.13802
0.14174
0.14947
0.14951
0.14954
0.15243
0.15083
0.1472
0.1424
0.13866
0.13518
0.13338
0.13171
0.1323
0.13357
0.12974
0.13047
0.13615
0.14357
0.14689
0.1514
0.1563
0.16513
0.16548
0.17009
0.17365
0.16768
0.16356
0.16402
0.16516
0.16551
0.16297
0.15704
0.15654
0.15536
0.15212
0.1534
0.1503
0.15099
0.14735
0.14325
0.13945
0.13663
0.1333
0.13092
0.12728
0.14748
0.14909
0.14844
0.14355
0.13901
0.15694
0.15787
0.15731
0.16036
0.16033
0.15817
0.15544
0.15505
0.15183
0.15099
0.14663
0.14902
0.14837
0.14777
0.1465
0.14175
0.13877
0.13743
0.13333
0.13595
0.13767
0.13426
0.13253
0.12949
0.12524
0.1213
0.12192
0.12821
0.13048
0.14259
0.13812
0.13182
0.12955
0.12887
0.12466
0.1229
0.11912
0.11776
0.11435
0.11046
0.109
0.10907
0.10485
0.10165
0.1001
0.0951
0.09259
0.09598
0.09555
0.0923
0.08999
0.09642
0.1131
0.1186
0.11798
0.1217
0.12372
0.12131
0.11765
0.11281
0.11761
0.1185
0.1186
0.12799
0.13385
0.14857
0.16296
0.19703
0.21796
0.24239
0.25508
0.25757
0.2506
0.24985
0.24986
0.2713
0.27906
0.28341
0.28603
0.29988
0.30418
0.29173
0.28447
0.28272
0.30538
0.35786
0.36444
0.36412
0.35954
0.35814
0.36542
0.37289
0.36911
0.37703
0.35939
0.353
0.33922
0.3307
0.32994
0.35137
0.37342
0.3646
0.36499
0.3582
0.35404
0.33875
0.33456
0.31923
0.32072
0.32138
0.31485
0.31165
0.30439
0.29622
0.28292
0.28199
0.27614
0.26856
0.27152
0.26141
0.27416
0.27172
0.27017
0.27016
0.27801
0.28815
0.28757
0.28988
0.28918
0.32424
0.3325
0.32947
0.31879
0.32745
0.32406
0.33377
0.32779
0.32509
0.33258
0.32954
0.32029
0.31312
0.31719
0.31024
0.29666
0.29832
0.29273
0.30396
0.29511
0.2926
0.27813
0.29255
0.28808
0.28607
0.2785
0.27289
0.26554
0.26229
0.25998
0.25713
0.25805
0.26033
0.27173
0.28447
0.27343
0.26033
0.24816
0.23544
0.22362
0.21479
0.21088
0.22224
0.22923
0.24214
0.2527
0.24679
0.24345
0.24678
0.24058
0.22911
0.22131
0.21765
0.25067
0.27348
0.28038
0.28249
0.27446
0.27771
0.27216
0.25915
0.24921
0.24069
0.24922
0.2657
0.26815
0.269
0.26764
0.26067
0.25133
0.24552
0.24227
0.23568
0.22599
0.22556
0.21445
0.20699
0.20649
0.20888
0.21753
0.21628
0.21226
0.20853
0.20363
0.19695
0.18931
0.18293
0.17486
0.18023
0.17593
0.17479
0.1773
0.1775
0.17625
0.1708
0.17146
0.17135
0.17054
0.1655
0.16083
0.15791
0.15449
0.16488
0.17167
0.16584
0.16328
0.16948
0.17094
0.16587
0.18117
0.19894
0.20616
0.20501
0.20965
0.21039
0.20465
0.20931
0.20222
0.19492
0.18457
0.17853
0.17792
0.1895
0.18953
0.18099
0.19307
0.19142
0.19489
0.19311
0.18646
0.18671
0.18052
0.1762
0.16861
0.16085
0.15436
0.14834
0.14988
0.15275
0.15827
0.15839
0.15422
0.15178
0.15951
0.16097
0.16662
0.174
0.17871
0.18166
0.18226
0.18495
0.19531
0.19208
0.1955
0.18939
0.19015
0.18943
0.18161
0.17578
0.18251
0.1809
0.18155
0.18358
0.1919
0.21462
0.21572
0.21388
0.20432
0.19758
0.19347
0.18536
0.18784
0.18442
0.22053
0.2305
0.23117
0.23181
0.22739
0.23186
0.2253
0.21921
0.21284
0.20906
0.19913
0.19348
0.19609
0.21208
0.2105
0.2069
0.21069
0.2035
0.1961
0.18995
0.19067
0.18991
0.19134
0.19482
0.19162
0.1915
0.19211
0.18624
0.17937
0.1737
0.16844
0.16212
0.1584
0.15065
0.14561
0.14664
0.14402
0.14302
0.14209
0.14337
0.15027
0.15168
0.14942
0.14589
0.14332
0.14523
0.142
0.13828
0.14055
0.13765
0.13853
0.13578
0.13037
0.12963
0.13108
0.13029
0.1317
0.13086
0.12795
0.12595
0.12552
0.12942
0.12874
0.12455
0.12279
0.12331
0.12021
0.11591
0.11263
0.12459
0.12569
0.12885
0.14037
0.14105
0.14241
0.14366
0.14412
0.14168
0.1437
0.14629
0.15656
0.15395
0.15581
0.15539
0.15215
0.16128
0.15833
0.15774
0.15647
0.15744
0.15548
0.1508
0.15146
0.15421
0.15105
0.15241
0.14938
0.14514
0.14834
0.15275
0.15469
0.15221
0.15777
0.15579
0.15323
0.15086
0.15008
0.15079
0.17359
0.17548
0.17294
0.1763
0.17943
0.17375
0.16491
0.1717
0.17015
0.16157
0.16432
0.17544
0.18933
0.18224
0.17851
0.17147
0.16708
0.173
0.16707
0.16228
0.16498
0.16248
0.16659
0.16326
0.16517
0.1698
0.16839
0.16779
0.16437
0.16192
0.15464
0.15216
0.15915
0.15564
0.15381
0.14854
0.14793
0.14808
0.14321
0.1487
0.15879
0.17816
0.18329
0.17806
0.17248
0.17659
0.17969
0.179
0.17907
0.18057
0.1741
0.17452
0.19134
0.20053
0.20906
0.20627
0.20297
0.19704
0.19297
0.19704
0.18939
0.19872
0.20667
0.20691
0.20784
0.20443
0.19625
0.19224
0.18422
0.18392
0.17649
0.17817
0.17759
0.17991
