atr
0.0
0.06786
0.13801
0.19244
0.22084
0.27863
0.32016
0.34586
0.38259
0.41454
0.42779
0.44795
0.55738
0.60543
0.64861
0.65157
0.78217
0.78344
0.7682
0.79475
0.95227
0.96425
1.10681
1.30775
1.47719
1.50025
1.47738
1.43899
1.42335
1.36668
1.36335
1.34882
1.34248
1.29516
1.28836
1.28848
1.3343
1.33399
1.48799
1.50028
1.7174
2.04545
2.30863
2.35873
2.40739
2.44258
2.42882
2.42248
2.33158
2.3079
2.23019
2.16232
2.0643
1.98328
1.93661
2.01614
2.06499
2.06106
2.07813
2.08541
2.18788
2.16874
2.2624
2.2608
2.41932
2.44008
2.40793
2.31522
2.32414
2.32955
2.26601
2.18416
2.11315
2.04363
2.02266
1.97533
1.94066
1.87276
1.81899
1.73835
1.68846
1.75572
1.74388
1.90432
1.88258
1.84168
1.7637
1.69487
1.72309
1.69787
1.64731
1.63964
1.89253
1.84163
1.86366
1.78483
1.76305
1.70283
1.64263
1.60816
1.58543
1.58219
1.55489
1.4974
1.45758
1.44061
1.397
1.37864
1.34159
1.32505
1.28683
1.27849
1.27431
1.40043
1.39183
1.34527
1.35346
1.33893
1.31901
1.29694
1.34715
1.3345
1.33204
1.27261
1.49742
1.56689
1.65925
1.71288
1.69767
1.98998
2.02356
1.97402
2.06873
2.21953
2.256
2.507
2.67292
2.77343
2.77747
2.76908
2.902
2.90043
2.83969
3.11828
3.31126
3.34903
3.38338
3.36886
3.30537
3.21284
3.13978
3.17265
3.12532
3.05565
2.98454
2.9385
3.07503
3.03967
3.09255
3.02666
3.12047
3.05615
3.07285
3.00336
3.28384
3.45785
3.35229
3.36355
3.28401
3.17516
3.32979
3.41695
3.35931
3.35436
3.51904
3.38483
3.40091
3.32656
3.39181
3.30668
3.29334
3.2881
3.19967
3.08255
3.06308
2.92
2.79215
2.77556
2.72874
2.65383
2.57784
2.48728
2.44319
2.46653
2.38821
2.34262
2.32315
2.25864
2.17231
2.165
2.13179
2.12023
2.07236
2.28076
2.52213
2.43984
2.40414
2.39313
2.32362
2.24764
2.24067
2.16776
2.1615
2.14639
2.06808
2.0175
1.97339
1.92244
1.93869
2.20235
2.37647
2.44458
2.41354
2.539
2.57907
2.52628
2.48155
2.39358
2.30118
2.44895
2.3976
2.60563
2.73523
2.72128
2.70905
2.64769
2.56214
2.54484
2.58235
2.55433
2.51616
2.44072
2.36353
2.25113
2.19391
2.13934
2.07153
2.09214
2.03056
1.97695
1.95431
1.97614
1.91427
1.85683
1.82991
1.7992
1.89212
1.89411
1.90453
1.88921
1.87569
1.94314
1.96006
1.94148
1.93924
1.88072
1.8471
1.82802
1.8153
1.77849
1.72503
1.67396
1.60939
1.57943
1.53804
1.54676
1.58699
1.55363
1.57123
1.58828
1.62984
1.73699
1.74792
1.75378
1.76137
1.72984
1.907
2.06078
2.52716
2.51164
2.45724
2.4153
2.4092
2.32997
2.30855
2.26722
2.18956
2.17459
2.1907
2.2985
2.37432
2.38902
2.45194
2.44395
2.39009
2.2958
2.19753
2.17128
2.15119
2.22467
2.22077
2.22357
2.19617
2.17145
2.08063
2.04058
1.97626
1.89438
1.84121
1.87898
1.86334
1.87953
1.89028
1.85883
1.82748
1.79124
1.889
1.87979
1.90338
1.96528
1.94133
1.89623
1.92222
1.84634
1.87875
1.9167
1.96836
1.99133
1.98552
1.93942
1.92731
1.86751
1.84483
1.77305
1.77426
1.75396
1.81796
1.79097
1.82233
1.86287
1.84767
1.82855
1.84008
1.78222
1.72063
1.65844
1.63284
1.60621
1.63077
1.77714
1.9652
2.03411
1.98525
1.93487
1.8781
1.82181
1.8631
2.6336
3.1562
3.26218
3.33417
3.33316
3.46865
3.54017
3.43945
3.37877
3.406
3.27129
3.13405
3.07448
3.02344
2.92677
2.94486
3.00022
3.02449
2.9606
2.88199
2.78184
2.811
2.7945
2.74703
2.67082
2.6079
2.58448
2.46845
2.54213
2.44555
2.40515
2.35764
2.26567
2.18526
2.09989
2.02775
1.98934
1.91796
1.89739
1.82901
2.04836
2.07419
1.99747
1.96265
1.91603
1.85488
1.80954
1.74028
1.66883
1.60892
1.53757
1.5706
1.6477
2.00572
2.32102
2.33309
2.34359
2.47976
2.37978
2.25908
2.17129
2.0912
2.02468
2.29292
2.38842
2.48068
2.39706
2.37084
2.30935
2.28011
2.66082
2.81005
2.73219
2.6856
2.68949
2.71881
2.64247
2.54158
2.64075
2.77641
2.71309
2.74787
2.70945
2.61021
2.56591
2.49548
2.49509
2.54616
2.64786
2.76516
2.6455
2.63511
2.55546
2.58507
2.53542
2.50146
2.4235
2.46897
2.41118
2.49395
2.73724
3.10458
3.03497
2.98462
2.89786
2.91444
3.07984
3.21985
3.52914
3.64492
3.59743
3.56118
3.55681
3.57918
3.45567
3.34669
3.21121
3.09898
3.06549
3.00295
2.88345
2.84106
2.94813
2.92112
2.86247
2.83729
2.78463
2.8143
2.75328
2.65947
2.70522
2.60199
2.49042
2.40468
2.32006
2.23648
2.28031
2.22314
2.18077
2.13
2.04929
1.98291
2.06485
2.04593
2.06836
2.01277
1.94614
1.88142
1.82489
1.76882
2.08105
2.17526
2.18631
2.21443
2.18269
2.13321
2.08012
2.04654
2.05036
2.01391
1.96149
1.96709
2.18587
2.23617
2.24144
2.2042
2.18532
2.28066
2.26775
2.30863
2.30873
2.29096
2.38946
2.36664
2.45188
2.85818
2.91974
3.00047
2.92758
2.82418
2.69888
2.58182
2.54026
2.49238
2.75221
2.6992
2.62497
2.59533
2.52423
2.4525
2.4459
2.42262
2.38529
2.40134
2.3391
2.32631
2.37586
2.35972
2.2776
2.30777
2.2415
2.1914
2.09915
2.04207
1.98764
1.93066
1.90776
1.9172
1.87812
1.88325
1.83231
1.81786
2.15444
2.25626
2.31296
2.3556
2.32163
2.26009
2.34294
2.2563
2.23942
2.25875
2.48812
2.53611
2.45425
2.36109
2.2753
2.15992
2.17921
2.11141
2.10345
2.09535
2.02711
1.95303
1.87638
1.81807
1.83607
1.81706
1.75941
1.70731
1.74393
1.79294
1.83487
1.80738
1.87828
2.00412
2.10882
2.09605
2.01848
1.93359
1.86047
1.86687
1.85209
1.88123
1.95828
1.96912
2.05133
2.00552
1.96226
1.9071
1.93374
1.95704
2.01011
1.9951
1.97188
1.94889
1.92326
1.94017
2.05373
2.2656
2.28163
2.21294
2.15059
2.1334
2.03673
1.98339
2.02244
2.06655
2.03251
2.04376
2.03206
2.01406
1.97948
2.01095
1.99445
1.98199
1.90899
1.88549
1.90296
1.9056
1.84377
1.85922
1.91927
1.94504
1.92754
1.882
1.83471
1.79152
1.77998
1.76141
1.68845
1.64856
1.63295
1.60274
1.57612
1.6364
1.60522
1.58914
1.54991
1.99563
1.98094
1.92945
1.9152
2.00269
2.0575
2.11696
2.22289
2.19911
2.16561
2.73306
2.86356
2.99402
2.9273
2.81178
2.80023
2.80378
2.68851
2.68933
2.66152
2.6457
3.09101
3.23808
3.36393
3.42508
3.72114
3.76392
4.25578
4.71394
4.5658
4.6711
4.65674
4.45126
4.53188
4.73603
4.79489
4.78597
4.72554
4.56014
4.49442
4.4391
4.51202
4.45331
