atr
0.0
28.22357
123.1876
147.9242
178.21319
187.4151
198.45545
207.42435
209.08904
227.51125
226.26687
228.25638
240.2545
272.30561
276.61663
277.20473
289.36368
282.42842
282.2871
302.31659
307.82041
318.30609
316.13137
328.19556
341.80873
345.1624
340.92437
336.34691
331.69285
323.12979
324.69195
313.18466
365.15433
383.61688
382.06282
373.86404
367.88875
362.92741
360.98331
367.21165
379.81867
397.92948
424.94881
436.62532
458.70637
480.39163
495.78651
526.08747
542.93908
558.85343
563.04533
550.20781
535.37368
522.84699
514.73363
504.09123
488.55757
472.95774
457.87505
477.52254
514.84236
507.48577
491.92178
513.16737
506.03041
487.67967
474.56184
471.06956
453.49959
435.91177
427.13235
410.42433
416.56402
406.42945
405.13734
405.03039
400.81036
408.82248
417.20445
417.67413
428.48526
438.59346
435.39107
422.80242
419.03082
415.52076
461.69428
458.85897
453.71619
454.78575
443.79462
432.76643
427.73312
425.78147
417.0085
429.8579
430.26305
454.32569
438.53385
432.02072
422.0321
411.60838
407.27992
419.56207
439.59335
431.62168
430.78513
428.22334
437.28667
430.04548
470.84795
470.31595
470.0541
455.88309
442.70858
431.52368
422.98056
440.69267
448.9739
440.52291
459.01985
463.67057
462.76267
461.64177
479.2195
500.42882
520.20248
531.1173
528.89321
549.68726
582.6096
647.78034
676.30461
662.37356
641.18331
637.8845
640.85632
644.1473
643.01535
645.7164
637.65451
613.69776
602.12578
609.48322
624.52013
612.56012
593.19726
578.70745
577.84835
556.09275
547.66827
532.75268
530.28963
524.12537
517.27642
511.48739
563.82615
555.97071
556.33637
541.6252
529.93126
511.70474
508.81869
499.82878
481.92315
468.99721
473.36884
465.95964
458.17609
460.15566
450.64597
444.29483
428.91234
424.44289
414.95125
414.51759
412.90205
397.39619
425.58575
426.90819
421.41475
425.52298
431.27134
423.22553
423.02871
419.04951
409.66383
401.16427
396.54754
382.72986
379.40916
374.31422
378.14106
377.04527
378.55489
389.45597
504.73269
528.45892
528.49686
525.31137
522.29198
510.01041
507.95967
487.63255
523.39165
522.35939
502.47658
492.23468
488.06506
477.7847
482.45579
481.56681
548.98275
564.80684
552.03849
572.19574
594.51176
592.29092
573.70943
568.1809
566.89869
560.44378
561.11566
548.90382
544.63998
547.87355
540.94044
531.6497
521.82257
521.22668
513.63763
492.81065
479.42204
485.94689
464.8264
476.82951
467.1274
449.42116
467.12536
458.61355
479.42687
470.03209
460.52052
484.14691
488.92213
473.08412
492.27311
504.49717
490.19166
542.83869
570.29092
568.23943
557.16233
539.0993
534.33935
533.20583
524.35827
504.55768
492.59642
481.81953
470.1967
459.09337
442.17956
427.8053
444.95135
453.54483
448.28091
463.74085
453.42079
445.61644
482.73313
491.66576
587.37178
615.91665
617.77975
616.06834
605.57417
599.45959
587.76104
611.33954
624.08457
603.67068
631.88706
623.61869
605.2895
594.95239
583.38294
574.99844
581.14284
568.35835
554.26347
571.93608
579.23707
597.11014
621.53084
603.9215
646.32282
682.45405
685.13519
686.43553
709.47585
720.90115
757.41463
777.40859
784.73655
838.19322
859.00299
883.03492
863.216
835.46343
811.41747
787.88836
787.78562
771.61379
769.45924
756.18572
742.7246
731.27784
720.31799
700.91242
696.33154
670.65785
664.30944
649.74091
631.21655
619.69609
607.48565
591.12596
585.30482
572.77019
556.14018
576.91588
565.05546
565.64293
549.45558
537.08089
533.35368
551.57128
546.75047
542.21115
607.89679
619.63559
628.70019
627.57589
617.45118
635.09467
641.83791
658.84949
646.61666
666.37405
685.94447
675.02129
673.98334
646.83739
651.97329
641.28949
622.26738
604.10328
593.5859
574.81191
578.46106
577.85813
566.68469
568.7015
554.75139
536.30558
521.13946
509.27236
493.25362
527.88122
535.40756
551.05345
553.82463
572.68573
578.58032
577.3603
596.35099
622.02806
645.08963
627.94108
603.55029
588.76599
579.95413
598.14241
640.19866
650.30876
666.92885
1194.53321
1259.8637
1249.70272
1237.65253
1207.14092
1266.51942
1266.84518
1236.84124
1292.42115
1328.65607
1282.97206
1246.33977
1219.7605
1185.15904
1156.59482
1124.21305
1081.82783
1045.89156
1030.15073
1005.42211
975.89196
988.41896
949.95403
931.47517
907.12981
877.47268
854.41177
853.36807
825.63892
822.08757
800.80275
791.13612
796.19711
789.24946
788.64593
843.86479
873.14016
896.65372
899.11489
872.47668
861.06763
846.70566
852.03882
830.61462
820.02001
865.97358
885.64547
878.27722
872.28885
930.6225
942.79803
952.8496
931.34677
965.85772
949.61717
930.75737
909.05042
933.82753
932.71771
915.99858
884.13083
877.5722
858.17275
848.90327
830.8759
840.09905
808.34697
834.59576
837.3332
806.45583
820.33613
803.93069
789.4685
781.83504
765.90396
776.36582
754.51326
757.49374
768.94705
803.30797
774.90455
799.25279
780.49902
775.37195
749.59681
730.47561
709.14164
708.78581
708.13039
747.54965
751.43253
774.57878
771.89458
816.58497
826.11461
831.87714
815.9352
800.34126
778.95403
807.20731
828.19107
809.38671
846.70123
843.01829
846.26269
820.30036
799.79319
791.36868
851.8902
860.93804
894.28747
932.72336
980.56455
976.5528
961.87046
953.97471
1028.94223
1160.65564
1134.05524
1160.08486
1183.95452
1172.88562
1217.67951
1227.7124
1207.23223
1230.66493
1214.056
1206.66415
1186.85456
1182.96067
1166.60705
1130.15083
1092.66363
1097.25765
1055.05996
1036.93711
1010.41517
979.67123
958.10329
1004.39734
957.6261
967.15924
929.575
915.4025
876.42161
839.93221
820.01277
799.21185
768.98244
755.77798
763.64098
771.98448
746.34202
725.48402
777.99444
755.37198
737.82827
743.31982
713.50769
695.33857
672.59939
675.31943
671.35019
665.23517
653.8698
630.87696
638.04003
599.95146
600.56064
633.46845
640.97571
626.26458
619.0064
603.89594
617.90338
600.67099
582.92378
588.84565
581.01596
574.57625
654.47652
712.19177
754.53664
748.62402
854.83374
904.21633
896.90873
875.31954
864.39314
840.42577
827.45036
805.76605
782.04419
816.87532
787.90422
765.05178
749.13237
745.23791
726.99306
707.9457
720.94244
746.58012
722.12368
713.25199
723.75685
734.7485
781.75647
768.69958
759.62175
724.41305
692.04926
682.59074
660.22783
653.36727
680.63604
672.20418
669.70317
653.26508
632.03472
630.96153
624.77713
625.92377
639.11421
627.72177
636.76736
650.08469
629.84221
610.76848
597.25859
600.42012
590.68011
570.74153
565.61214
557.92484
550.67807
547.58249
540.61731
540.45893
560.10401
556.58015
551.08728
547.66819
535.25689
545.31283
546.68905
548.37912
541.84347
538.86608
538.20922
532.08356
524.54545
537.58434
661.25689
677.02426
666.33895
656.08403
646.49802
626.07745
613.22263
611.29602
621.56773
612.45361
614.23406
586.89234
589.11361
616.99478
598.00586
586.79902
571.48623
590.99364
577.7641
580.00595
600.44766
592.10997
590.00069
564.77136
596.29697
593.41433
575.01902
558.99124
576.44543
567.63433
547.48831
533.502
533.034
522.47943
505.7609
491.62655
496.76108
496.08743
489.15119
477.55896
484.02403
562.32946
563.0145
616.08203
642.84617
634.97216
627.77986
602.04773
606.04004
601.13003
596.75146
616.42636
620.03519
646.15767
637.58784
607.52299
604.00635
598.3959
584.41333
574.85024
568.03022
579.97021
562.18019
554.24161
541.08221
536.72562
531.26879
532.16816
529.49115
511.2575
492.57125
497.02616
478.37358
466.91761
467.32492
459.53743
465.27761
