atr
0.0
0.89214
1.37556
1.57802
1.92959
2.53248
2.89801
3.03959
3.11747
3.36908
3.387
3.39936
3.81512
4.0319
4.32748
4.2798
4.44696
4.66075
5.02355
5.60401
5.54658
5.52254
5.62164
5.74153
5.96213
6.27698
6.23362
6.00408
5.88164
5.6701
5.59295
5.39202
5.50759
5.49848
5.32002
5.23787
5.21731
5.12536
5.13641
5.19666
5.29904
5.56697
6.09361
6.04836
6.27562
6.57736
6.78898
6.84691
7.14284
7.17764
7.18781
7.00868
6.82734
6.60539
6.37286
6.15694
6.09216
6.15058
6.09625
6.10581
6.27682
6.13419
5.98103
5.90239
5.7115
5.77782
5.62298
5.6442
5.65461
5.51714
5.56806
5.40748
5.43552
5.34798
5.36241
5.1851
5.03187
5.36317
5.38437
5.30049
5.21617
5.51573
6.13675
6.36269
6.40893
6.72472
6.86724
6.91244
6.94941
7.04802
6.99459
6.7914
6.58416
6.61386
6.43573
6.52532
6.62851
6.91576
6.82321
6.58655
6.6118
7.19238
7.34578
7.30394
7.48937
7.68085
8.09864
8.40374
8.58919
8.67353
9.19899
8.99192
8.93679
8.76273
8.65539
8.63786
8.7923
9.12357
9.19117
9.03609
9.35136
9.87912
9.63347
9.45037
9.57534
9.50067
9.27777
9.27364
9.27053
9.65763
10.96066
11.78561
12.51164
12.99009
12.59009
12.64508
12.96257
12.9781
12.77181
12.77311
12.46003
12.1736
11.86763
11.95208
12.20265
11.78532
11.26208
11.29979
11.12766
11.06854
10.80936
10.45441
10.22909
9.93201
9.9433
9.71521
10.29698
10.24791
10.23877
9.871
9.73736
9.35969
9.00757
8.99489
8.93311
8.8036
8.44763
8.07637
7.97949
7.67095
7.38874
7.43097
7.27733
7.16252
7.1152
7.31911
7.13703
7.47296
7.42561
7.68663
7.71687
7.83924
8.13644
8.15384
8.37785
8.14514
7.9162
8.06076
8.02999
7.76999
7.71285
8.20408
8.7145
8.98418
9.23745
9.60549
10.12653
10.65249
10.80445
10.76699
10.41649
10.49889
10.34825
10.10266
10.34247
10.4223
10.0757
9.87887
9.74466
10.0129
10.67055
10.51623
10.51721
10.65098
10.80448
10.39059
10.66126
10.73903
10.52553
10.25942
10.02446
9.87986
9.94415
9.71028
9.28883
9.25035
8.98675
8.92484
8.83521
8.59912
9.07918
9.05567
8.78312
9.02861
9.16729
9.17034
8.88317
8.74294
9.36845
9.81356
9.68973
9.59761
9.28564
10.71023
12.11522
12.65413
12.59455
13.12351
13.8954
20.2293
21.60792
22.5345
22.36132
22.36623
22.22793
22.12165
21.83938
21.42157
20.65646
20.01814
20.55899
20.92192
20.37678
19.67415
19.64671
19.25909
19.3863
18.88228
18.73711
18.57875
19.29027
19.51525
20.34987
20.05845
20.15071
19.64923
19.38071
19.51495
18.76531
18.73207
18.33835
17.7749
17.67169
17.47514
16.94549
16.2301
15.68152
15.06855
15.55723
15.02243
14.55725
14.51745
14.1312
14.36469
14.12364
13.86766
13.86569
14.71314
14.09077
13.67786
13.6323
13.87785
15.40943
15.54376
15.99063
16.64487
16.6831
16.73645
16.19099
15.50234
14.95432
15.0183
14.7527
14.09322
13.74085
13.58079
13.37073
12.92497
12.53818
12.12403
11.98945
11.75092
11.94729
11.46176
11.18664
10.73616
10.37787
10.01231
9.68357
9.38617
8.95144
8.5642
8.43461
8.22571
8.00316
7.71722
8.04171
8.59587
8.82831
9.15343
10.03033
10.56173
11.81232
12.18287
13.02981
13.09911
13.28917
13.67423
13.8375
14.58911
14.85631
14.81443
14.49697
14.35433
14.31402
13.95874
13.3124
12.63866
12.59304
12.23711
11.90946
11.84592
11.69479
11.73016
11.958
11.67029
11.27527
10.97561
10.81592
10.9005
10.70475
11.40441
11.36409
11.36309
11.15787
11.22373
11.41918
11.3371
11.33516
10.82194
10.6918
10.60167
10.35084
10.61935
10.81939
11.10015
11.25228
16.17926
17.6736
17.71763
17.71066
17.75275
18.03113
18.5489
18.28041
19.28252
19.4952
18.85054
18.78979
18.25338
17.92956
17.86817
17.2283
16.65128
15.96904
15.72411
15.24882
14.76033
15.39816
16.07044
16.45684
16.74635
16.62232
16.07573
16.10746
15.64979
15.54266
15.0589
15.38755
15.48629
15.6787
15.73665
17.0226
17.35813
18.01827
17.87696
17.29146
16.99065
16.8306
16.65484
16.2795
16.12168
17.74013
17.42512
17.71404
17.74161
18.54935
18.48511
17.88474
17.26798
17.71312
17.82718
17.49096
17.5866
17.81613
17.73926
18.02003
17.71932
17.90365
18.70125
19.14687
19.32209
18.98409
19.06737
19.45613
19.80355
19.29972
19.10188
19.12461
18.57499
19.34821
19.12976
19.09549
18.42296
18.99918
19.14209
20.13194
19.59038
19.43821
18.94262
18.55315
17.97007
17.4572
16.86883
17.02963
16.64537
17.31356
17.39402
17.49802
17.58816
17.92615
18.20714
17.89234
17.6786
17.2637
16.75772
16.98003
16.95788
16.67232
17.28787
17.06874
16.63811
16.39825
15.81766
15.54354
16.74186
16.71173
17.28089
17.90654
19.8275
19.61839
19.12851
19.46004
21.43004
22.77575
23.14463
23.92144
24.37919
23.96496
24.11461
24.67071
24.1228
24.3526
23.90742
24.20831
23.60915
23.32207
22.86978
22.19979
21.32052
21.01191
20.13106
19.98813
19.91541
19.11788
18.87017
19.38444
18.68627
18.93011
18.81939
18.16229
17.56498
16.81534
16.20996
15.70139
15.04986
15.03487
15.21452
15.3192
14.71926
14.2486
14.66798
14.15313
13.8179
13.50734
12.95681
12.48847
12.16072
11.96567
11.97527
12.05346
11.68036
11.19176
11.07735
10.4354
10.7943
10.9397
10.68758
10.46275
10.30256
10.22095
10.41659
10.18969
9.93257
9.67239
9.75936
9.75369
10.09057
10.5141
11.31238
11.2765
11.74246
11.88943
12.10947
11.73379
11.65495
11.54174
11.93947
11.77237
11.46791
11.6252
11.34483
11.02449
10.93774
10.76004
10.45575
10.25606
10.52205
10.34619
9.98432
9.79187
9.80674
10.08054
10.39622
10.3372
10.41026
9.99595
9.51339
9.43172
9.21088
9.25439
8.96765
8.81281
8.62404
9.33375
9.65634
9.73089
9.66225
10.52209
11.14194
10.97038
11.33106
11.50527
11.22704
11.03868
10.60449
10.46417
10.28316
10.29864
10.33588
10.01761
9.94421
9.91748
9.65623
9.77864
10.4516
10.60505
10.47112
10.42675
10.4127
10.35179
10.30309
10.18002
10.12573
9.88175
9.78091
9.7087
9.51522
9.35128
9.63619
9.5536
9.44834
9.25561
9.58092
9.84728
9.76676
9.76199
10.21114
10.19248
9.96302
10.10781
10.15368
10.88627
11.66725
11.65459
12.47569
12.88957
12.92674
12.73555
13.30229
13.55642
13.65882
13.10247
13.28372
13.28989
12.98418
12.85531
12.9235
12.94897
13.31761
13.01707
12.78085
12.32793
12.34665
11.8926
11.68813
11.51112
11.88676
11.9977
11.7793
11.78435
11.79975
11.47548
11.56295
11.26702
11.48366
11.11412
11.11454
10.78778
10.32366
10.1334
10.0453
9.8092
10.98355
10.60901
10.65122
10.31256
10.12738
9.88614
9.9157
10.23029
10.29099
10.10592
9.76335
9.5574
9.49044
9.33255
9.11451
8.98133
8.86767
8.51426
8.16467
8.07434
8.01688
7.70496
7.90032
