atr
0.0
0.00017
0.00037
0.00063
0.00069
0.00079
0.00086
0.00091
0.00095
0.001
0.00102
0.00113
0.00133
0.00158
0.00167
0.00178
0.002
0.00218
0.00235
0.00238
0.00253
0.0027
0.00277
0.00283
0.00275
0.00266
0.0026
0.00253
0.00248
0.00239
0.00233
0.00224
0.00214
0.00207
0.00197
0.00196
0.00202
0.00221
0.00225
0.00235
0.0024
0.00238
0.00241
0.00239
0.00259
0.00271
0.00283
0.00278
0.00269
0.00258
0.00247
0.00236
0.00233
0.00223
0.00216
0.00208
0.00204
0.00194
0.00185
0.00179
0.00188
0.00187
0.00185
0.00193
0.00212
0.00222
0.00231
0.00235
0.00234
0.00251
0.00249
0.00251
0.00241
0.00227
0.00217
0.00206
0.00196
0.00188
0.00181
0.00173
0.00163
0.00155
0.0015
0.00151
0.00153
0.00166
0.00176
0.00179
0.00181
0.00195
0.00194
0.00189
0.00196
0.00203
0.002
0.00193
0.0019
0.00197
0.00197
0.00188
0.00181
0.00175
0.00172
0.00169
0.00163
0.00159
0.00152
0.00154
0.00156
0.0016
0.0017
0.00179
0.0019
0.00197
0.00201
0.00215
0.00218
0.00232
0.00235
0.00228
0.00227
0.00227
0.00225
0.00221
0.00211
0.00222
0.00218
0.00221
0.00226
0.00233
0.00263
0.0028
0.00279
0.00273
0.00275
0.00301
0.00357
0.0037
0.00368
0.00393
0.00397
0.00394
0.00398
0.00401
0.0041
0.00418
0.00404
0.00391
0.00377
0.00369
0.00369
0.00361
0.00354
0.00356
0.0036
0.00348
0.00338
0.00324
0.00331
0.00332
0.00345
0.0034
0.00332
0.00326
0.00329
0.00325
0.00317
0.00325
0.00356
0.00359
0.00362
0.00361
0.00359
0.00364
0.00375
0.00365
0.00347
0.00331
0.00319
0.00301
0.00292
0.00281
0.0027
0.00258
0.00318
0.00336
0.00352
0.00354
0.00344
0.00359
0.00365
0.00368
0.00379
0.00379
0.00369
0.00357
0.0036
0.0035
0.00336
0.0032
0.00305
0.00292
0.00295
0.0029
0.00279
0.0027
0.00259
0.00269
0.00272
0.00297
0.00302
0.00296
0.00307
0.00353
0.00399
0.00407
0.00442
0.00489
0.00486
0.00496
0.00489
0.00501
0.00485
0.00471
0.0045
0.00465
0.00456
0.00437
0.0043
0.00416
0.00408
0.00401
0.00404
0.00413
0.00403
0.00411
0.00442
0.00461
0.00469
0.00458
0.00511
0.00524
0.00514
0.00529
0.00536
0.00569
0.0055
0.00523
0.00494
0.00574
0.00604
0.00584
0.00602
0.00598
0.00582
0.00574
0.00548
0.00523
0.00516
0.00545
0.00559
0.00593
0.00601
0.00603
0.00615
0.0063
0.00642
0.00639
0.00642
0.00637
0.00614
0.00601
0.00588
0.00572
0.00541
0.00509
0.00498
0.00476
0.00457
0.00443
0.00425
0.0041
0.00399
0.00403
0.00408
0.00423
0.00446
0.00451
0.00438
0.00448
0.00466
0.00482
0.00488
0.00493
0.00488
0.00487
0.00489
0.00468
0.00454
0.00454
0.00436
0.00424
0.00399
0.00381
0.00361
0.00345
0.00338
0.00369
0.00387
0.00402
0.00412
0.00472
0.00504
0.00553
0.00565
0.00565
0.00753
0.00817
0.00851
0.00825
0.00823
0.00858
0.00845
0.00827
0.00812
0.00825
0.00804
0.00774
0.00736
0.00701
0.0073
0.0076
0.00773
0.00764
0.0075
0.00736
0.00792
0.00783
0.00802
0.00844
0.00837
0.00888
0.00892
0.00864
0.00851
0.00825
0.00808
0.00803
0.00797
0.0083
0.00805
0.00778
0.00768
0.00735
0.00778
0.00859
0.00855
0.00894
0.00873
0.00869
0.00857
0.00837
0.00899
0.0096
0.0093
0.00956
0.00944
0.00911
0.00924
0.00887
0.00844
0.00851
0.00805
0.00847
0.0088
0.0087
0.0084
0.00807
0.00761
0.0072
0.00701
0.00677
0.00703
0.007
0.00685
0.00673
0.00675
0.00731
0.00743
0.00733
0.00784
0.00777
0.00802
0.00784
0.00782
0.00783
0.00746
0.00752
0.00736
0.00699
0.00681
0.00661
0.00637
0.00607
0.00595
0.00612
0.00599
0.00589
0.00601
0.00617
0.00625
0.0064
0.0063
0.00632
0.00651
0.00661
0.00659
0.00642
0.00626
0.00618
0.00585
0.00576
0.00545
0.00533
0.00512
0.00501
0.00482
0.00463
0.00476
0.0047
0.0046
0.00507
0.0052
0.00543
0.00546
0.00554
0.00581
0.00604
0.00651
0.00673
0.00663
0.0069
0.00684
0.00664
0.00631
0.00636
0.00644
0.00638
0.00617
0.00601
0.00574
0.00547
0.00531
0.0052
0.00567
0.00568
0.00592
0.00607
0.00609
0.00612
0.00616
0.00638
0.00677
0.00675
0.00658
0.00633
0.00647
0.00641
0.00642
0.00631
0.00622
0.00598
0.00582
0.00602
0.00603
0.00594
0.00578
0.00594
0.00602
0.00617
0.00627
0.00638
0.00676
0.00671
0.00667
0.00667
0.00698
0.00719
0.00704
0.00707
0.00679
0.00654
0.00629
0.00602
0.00603
0.00601
0.00597
0.00585
0.00562
0.00541
0.00527
0.00522
0.00534
0.00542
0.00551
0.00542
0.00534
0.00534
0.00524
0.00525
0.00534
0.00527
0.00509
0.00505
0.00486
0.0048
0.00485
0.00481
0.00468
0.00465
0.00538
0.00538
0.00522
0.005
0.00477
0.0046
0.00472
0.00464
0.00454
0.00465
0.0046
0.00452
0.00469
0.00465
0.00496
0.00524
0.00533
0.00536
0.00536
0.00521
0.00505
0.00492
0.00479
0.00461
0.00443
