atr
0.0
4e-05
0.00012
0.00038
0.00043
0.00047
0.00056
0.00063
0.00064
0.0006
0.00062
0.00075
0.00076
0.00073
0.0007
0.00083
0.00092
0.00092
0.00114
0.00116
0.00116
0.0014
0.00155
0.00147
0.0014
0.0013
0.00123
0.00117
0.0012
0.00119
0.00111
0.00111
0.00107
0.00107
0.00103
0.00106
0.00104
0.00107
0.00115
0.00132
0.00135
0.00132
0.00135
0.00131
0.00158
0.00161
0.00162
0.00155
0.00152
0.00145
0.00141
0.00132
0.00135
0.00131
0.00125
0.00122
0.00114
0.00106
0.00102
0.00098
0.00093
0.00089
0.00085
0.00092
0.00111
0.00127
0.00142
0.00133
0.00124
0.00134
0.0014
0.0015
0.00144
0.00135
0.00129
0.0012
0.00116
0.0011
0.00103
0.001
0.00094
0.00091
0.00089
0.00091
0.0009
0.00104
0.00119
0.00119
0.00115
0.00117
0.00117
0.00113
0.00117
0.00123
0.0012
0.00113
0.00115
0.00124
0.00119
0.00114
0.00108
0.00107
0.00106
0.00101
0.00099
0.00095
0.0009
0.00093
0.00096
0.00094
0.00107
0.00118
0.00132
0.00127
0.00133
0.00149
0.00153
0.00153
0.00149
0.00141
0.00145
0.00148
0.00152
0.00153
0.00145
0.00159
0.00156
0.00162
0.00162
0.00152
0.00181
0.00195
0.00195
0.00182
0.00174
0.00195
0.00256
0.00238
0.00228
0.00219
0.00216
0.00219
0.00224
0.00234
0.00228
0.00243
0.00228
0.00219
0.00206
0.00207
0.00195
0.00193
0.00181
0.00179
0.00188
0.00179
0.00168
0.00166
0.00154
0.00161
0.00184
0.00181
0.00177
0.00165
0.00159
0.00153
0.00153
0.00145
0.00135
0.00136
0.00148
0.00139
0.00137
0.00143
0.0014
0.00144
0.00139
0.00133
0.00133
0.00126
0.00127
0.00124
0.00122
0.00118
0.00109
0.00141
0.00163
0.00153
0.00146
0.00166
0.00165
0.0017
0.00159
0.00149
0.00148
0.00138
0.00132
0.00138
0.00133
0.00125
0.00121
0.00121
0.00133
0.00129
0.00124
0.00117
0.00114
0.00106
0.00116
0.00116
0.00112
0.0011
0.00111
0.00115
0.00131
0.0013
0.00122
0.00157
0.00169
0.00171
0.00184
0.00181
0.00188
0.00177
0.00167
0.00157
0.00168
0.00167
0.0016
0.00154
0.00153
0.00158
0.00176
0.00198
0.002
0.0021
0.00203
0.00195
0.00212
0.00206
0.00194
0.00182
0.00179
0.00167
0.00196
0.00184
0.00177
0.00176
0.00163
0.00265
0.00255
0.00249
0.00232
0.00218
0.00219
0.00231
0.00218
0.00211
0.00217
0.0023
0.00266
0.00248
0.00275
0.00283
0.00271
0.00279
0.00278
0.00293
0.0029
0.0028
0.00264
0.00273
0.00264
0.00247
0.00232
0.0022
0.00207
0.00201
0.00199
0.00199
0.00186
0.00176
0.00166
0.00163
0.00185
0.00179
0.0017
0.00183
0.00172
0.0017
0.00193
0.00199
0.00215
0.00236
0.00238
0.00225
0.00216
0.00213
0.00216
0.00233
0.00218
0.00215
0.00201
0.00192
0.00182
0.0017
0.00162
0.00153
0.00172
0.00179
0.00181
0.00173
0.0016
0.00173
0.00203
0.00198
0.00188
0.00253
0.00252
0.00249
0.00286
0.00266
0.00289
0.00284
0.00274
0.00263
0.00276
0.00274
0.00259
0.00252
0.00313
0.00291
0.00329
0.0034
0.00325
0.00341
0.00419
0.00408
0.0045
0.00476
0.00468
0.00471
0.00461
0.00445
0.00418
0.00393
0.00368
0.00393
0.00407
0.00468
0.00469
0.00445
0.00442
0.00418
0.00471
0.00549
0.00556
0.00521
0.00515
0.0048
0.00492
0.00475
0.00563
0.00536
0.00507
0.00494
0.00464
0.00455
0.00479
0.00445
0.00434
0.0047
0.00441
0.00411
0.00465
0.00455
0.00447
0.00441
0.00414
0.00396
0.00399
0.0039
0.00363
0.00351
0.00326
0.00304
0.00285
0.00368
0.00373
0.00351
0.00331
0.00325
0.00372
0.00345
0.00336
0.00369
0.00342
0.00349
0.00353
0.00331
0.00338
0.00341
0.00318
0.00304
0.00291
0.00329
0.00316
0.00319
0.00339
0.00367
0.00344
0.00333
0.00332
0.00317
0.00356
0.00343
0.00334
0.00332
0.00315
0.00317
0.00297
0.00308
0.0029
0.00272
0.00269
0.00274
0.00255
0.00242
0.00264
0.00248
0.00245
0.00293
0.00307
0.00286
0.00282
0.00268
0.00256
0.0024
0.0027
0.00313
0.00299
0.00344
0.00352
0.00355
0.0033
0.00313
0.00314
0.00319
0.00296
0.0028
0.0027
0.00254
0.00249
0.00236
0.00302
0.00298
0.00302
0.00307
0.00327
0.00324
0.00333
0.00343
0.00383
0.00388
0.00366
0.00347
0.00375
0.00348
0.00327
0.00321
0.00332
0.00309
0.00305
0.00342
0.00355
0.00329
0.00319
0.00311
0.00302
0.00296
0.00328
0.00358
0.00346
0.00358
0.00345
0.00358
0.00401
0.00431
0.00411
0.00434
0.00406
0.00388
0.00361
0.00335
0.00333
0.00348
0.00335
0.0032
0.00297
0.00276
0.0027
0.00269
0.00259
0.00256
0.00278
0.00273
0.00275
0.00276
0.00261
0.00261
0.00287
0.00269
0.00261
0.0025
0.00245
0.00254
0.00244
0.00226
0.00226
0.0021
0.00211
0.00217
0.00213
0.00208
0.00197
0.00193
0.00194
0.00186
0.00191
0.0022
0.00222
0.00209
0.0024
0.00248
0.00261
0.00291
0.00274
0.00267
0.0028
0.00261
0.00242
0.00248
0.00232
0.00231
0.0023
