atr
0.0
0.11714
0.25056
0.31266
0.37533
0.43852
0.59863
0.58444
0.73912
0.86454
0.94207
0.95871
0.9938
0.9921
1.00838
0.94064
1.02774
1.02219
1.00096
0.99446
0.96236
0.93505
0.95076
0.94106
1.21884
1.23357
1.21545
1.19971
1.18223
1.16028
1.24098
1.59627
1.62367
1.64198
1.61148
1.60281
1.55904
1.58482
1.57519
1.75589
1.75333
1.7713
1.74621
1.71041
1.70967
1.72719
1.68739
1.67936
1.63762
1.56743
1.5544
1.49266
1.45211
1.45375
1.44062
1.69522
1.72735
1.75432
1.81544
1.94934
1.93367
1.97127
1.84903
2.00946
1.99878
2.00244
2.00441
1.94338
1.91493
2.20565
2.13489
2.32775
2.26255
2.19487
2.13452
2.25313
2.10291
2.13877
2.21314
2.16256
2.14952
2.10241
2.05045
2.04971
1.94401
2.03623
1.98328
1.92698
2.00648
2.04244
1.99513
2.02619
1.99932
1.92722
1.85171
1.78587
1.77188
1.72353
1.73221
1.69134
1.62946
1.63949
1.7906
1.73663
1.7383
1.87949
2.05846
2.01964
2.02502
2.06431
2.04078
1.9693
2.00221
1.97205
1.91583
1.80649
1.69281
1.75832
1.70844
1.65427
1.67253
1.61021
1.54662
1.49401
1.50158
1.47432
1.4333
1.36092
1.30407
1.27771
1.28751
1.26305
1.3189
1.34148
1.32709
1.28087
1.25188
1.22103
1.35917
1.33316
1.28615
1.26571
1.2203
1.17814
1.20577
1.26107
1.26314
1.25756
1.20595
1.20445
1.1652
1.22197
1.17469
1.11364
1.0841
1.04237
1.0922
1.06812
1.09397
1.05976
1.02656
0.99645
0.99849
0.96609
1.05423
1.07821
1.11334
1.08953
1.05207
1.02513
0.98477
0.963
0.95243
0.96618
0.90324
0.85408
0.80843
0.79569
0.79635
0.80875
0.87956
0.85887
0.87788
0.86268
0.83606
0.85634
0.89839
0.86314
0.80649
0.77639
