atr
0.0
0.08536
0.2189
0.21862
0.20587
0.2133
0.3845
0.36275
0.43898
0.58084
0.55006
0.53863
0.50016
0.49407
0.52628
0.49298
0.61205
0.63048
0.63151
0.64819
0.63332
0.6113
0.63763
0.60994
0.56638
0.62699
0.58578
0.59822
0.60835
0.57668
0.68335
0.63454
0.67136
0.7284
0.71102
0.68737
0.65792
0.67699
0.69114
0.93499
0.91499
0.88927
0.92718
0.90024
0.92701
0.99401
0.92622
0.88363
0.85588
0.82117
0.83716
0.79057
0.76089
0.74547
0.69222
0.64278
0.66472
0.61796
0.70596
0.87053
0.81835
0.83454
0.7935
1.02932
1.04509
1.04187
1.06745
1.05692
0.98214
1.25341
1.1671
1.08373
1.00739
0.97829
0.97877
0.95029
0.89313
0.96183
1.08313
1.08469
1.05829
1.00805
0.98748
0.97587
0.94688
0.87925
0.83644
0.79277
0.89721
0.89848
0.85895
0.84402
0.90052
0.87298
0.86491
0.84671
0.79551
0.77548
0.85187
0.79959
0.77748
0.7398
0.71446
0.67807
0.62964
0.84752
0.81734
0.76682
0.74811
0.85039
0.83036
0.79141
0.85917
0.84101
0.85987
0.81881
0.77568
0.9067
0.88265
0.87603
0.93739
0.88972
0.83974
0.80154
0.82429
0.83112
0.79462
0.74143
0.7149
0.66383
0.71749
0.73053
0.79977
0.74265
0.77067
0.76134
0.76624
0.72223
0.70957
0.69103
0.68381
0.70068
0.65706
0.61013
0.58333
0.65595
0.67624
0.69544
0.66826
0.63267
0.63034
0.68389
0.65718
0.6331
0.61466
0.57076
0.52999
0.51392
0.51364
0.48231
0.48964
0.47895
0.5076
0.4817
0.48551
0.53333
0.60738
0.61149
0.60567
0.58777
0.54578
0.53537
0.52641
0.50381
0.4689
0.44755
0.42594
0.43587
0.40545
0.44185
0.53886
0.51537
0.48641
0.47488
0.44204
0.42618
0.47466
0.45576
0.4232
0.39298
