atr
0.0
7.47857
9.92582
13.28897
17.84262
19.411
20.29307
22.25214
24.37627
24.99725
25.82888
26.92253
32.05735
31.79254
31.92593
34.31908
37.08271
36.52895
36.18902
37.28052
43.86263
45.94887
49.40895
91.62902
95.12267
93.47747
92.08623
90.10292
86.88486
84.46451
82.30776
79.21006
77.46506
74.66898
72.65834
70.86346
67.7175
67.73768
118.84713
134.21519
131.13339
127.40958
122.06389
116.55933
113.83152
108.83998
111.98784
109.86157
105.15717
100.43166
96.55368
91.13628
87.9594
93.33444
88.88984
86.32771
82.96716
79.69879
81.13673
79.04982
80.31555
77.22158
79.67004
79.22647
76.78386
73.35287
73.84052
75.24049
71.99831
69.14557
68.22732
70.25822
70.58406
68.46092
67.55014
65.29513
64.55119
62.10825
60.64409
58.17522
56.71985
62.37629
61.79798
71.90313
72.34576
78.38249
77.2766
80.35113
82.07105
80.1924
85.65223
84.2935
84.45182
82.42741
82.85045
82.63542
81.1536
78.65406
76.21877
76.72814
76.1647
73.07508
73.66186
71.90816
82.699
79.62407
85.00735
90.4054
91.35716
90.33236
87.01862
85.56658
82.67111
79.50174
76.18805
74.29676
72.83342
72.06032
71.15029
70.6717
72.06087
70.3708
69.52432
69.75187
67.13959
66.10391
63.8222
62.19133
60.46695
62.89145
60.37206
58.48406
61.59234
59.64431
58.26115
57.04678
58.75987
57.11773
55.10932
55.78152
57.08141
56.79845
58.03427
58.54397
57.96797
56.20669
55.65692
53.82429
52.86898
51.9412
50.24897
52.6919
57.84891
57.66684
56.26921
57.56284
64.30121
67.41683
71.71135
70.45196
68.68682
67.06634
65.94874
81.53455
84.74279
81.56688
80.77782
79.30726
77.04388
74.66289
73.3184
70.30994
67.42137
65.4627
63.73108
61.21386
64.38216
67.99558
65.10589
62.23047
60.56615
60.83
60.48214
59.3127
59.87108
58.83243
57.48726
55.85888
54.16825
53.18623
52.43507
56.40685
74.30636
71.42091
68.30799
66.19313
63.91148
61.9178
58.41867
57.01662
54.72829
53.88342
53.92531
54.67565
53.62525
54.22344
54.06463
52.10144
51.21705
49.48155
47.60215
48.67128
48.8519
51.37748
57.35052
57.80977
56.95336
55.3874
53.56116
52.53822
50.65763
49.30209
47.27122
48.89471
47.8158
46.82539
45.65572
43.99745
44.7262
44.67576
43.54321
42.44298
41.26848
40.26502
57.99894
62.78473
61.71654
60.7375
61.23911
60.35203
58.31474
60.41654
61.33751
62.18483
60.63448
58.18559
63.45019
61.82661
60.08542
59.39789
58.36733
57.62895
62.17616
68.85572
69.21531
72.54779
99.72081
113.06075
112.72498
109.92391
110.72792
106.87592
104.02336
102.23526
102.25346
99.08464
94.07859
91.35869
87.41021
84.7652
81.06554
81.78872
79.81667
76.5969
73.48427
71.96396
73.44011
75.6551
80.40259
80.70527
79.32489
82.30668
82.98263
84.19816
83.60258
81.14025
78.91523
76.62914
74.45063
71.05345
68.30534
65.81282
64.53476
62.49371
60.93058
58.79126
56.65045
55.97828
57.08269
55.69821
55.78762
54.07708
52.73729
51.68462
50.25072
48.46853
46.62435
51.04546
52.95079
51.21073
50.32997
50.33925
50.02859
48.12084
46.30506
44.77327
43.08947
42.03165
42.81367
42.69627
43.12511
41.76331
39.93522
38.79413
39.02027
39.75453
44.49421
48.82319
48.60297
47.57275
46.46399
44.89227
43.7514
45.32415
53.801
54.01378
53.96351
58.15612
57.85068
64.52992
66.76707
75.82156
82.51574
85.8439
85.61576
82.24821
81.51405
80.99662
78.49186
83.92387
81.94217
84.01558
86.38518
84.17267
86.50891
84.21613
84.54569
84.57814
83.45256
80.68095
79.30374
76.74561
77.08593
81.47479
79.60159
76.77291
78.36627
76.97368
74.43627
73.29582
70.79969
68.899
71.32622
72.94577
76.9625
76.87232
77.26073
74.95496
73.67747
71.16765
68.17424
66.0168
63.74988
61.74203
61.64832
59.96558
59.27233
58.61002
57.07287
56.53981
57.38482
57.51162
55.97508
53.90614
51.63928
51.2029
49.94055
55.87337
58.93527
58.16204
58.36903
59.0441
57.00881
60.58818
67.57402
67.85802
67.30174
65.6209
65.23726
63.57746
61.07835
59.4599
57.33705
55.27155
54.39001
52.18715
50.44164
52.83866
54.34519
53.21482
51.2709
50.83798
50.4417
50.96515
49.86906
48.54127
46.87833
49.36987
52.36345
56.54035
54.9039
54.48219
55.12989
55.81561
60.84235
61.60719
62.44024
59.93808
57.49108
57.17743
56.66547
61.44008
59.85293
57.96486
57.66237
56.42078
55.39786
54.10516
55.51336
55.95812
57.30611
56.06853
56.65792
56.51236
57.26433
56.34259
55.64312
54.67076
52.11356
50.40759
49.66562
47.81236
46.29434
45.33831
44.337
43.33079
41.5893
53.55078
52.23073
50.96782
49.18083
49.57863
49.16016
47.23157
46.85789
45.95161
45.7615
44.8321
46.05624
45.52151
44.88854
43.33222
42.98206
41.21906
39.15198
38.14184
39.18671
38.31194
36.83609
35.86637
35.76091
34.92799
33.97528
33.88204
33.14475
34.04799
34.28956
33.5653
34.24207
35.67621
36.56719
35.43954
36.33457
36.25781
37.8794
40.34087
39.95724
38.75743
39.52619
39.77218
39.17273
38.9454
38.61072
37.66496
36.86246
37.94086
39.33722
40.67671
39.57337
39.45885
47.72679
48.75273
47.04039
47.37822
51.39692
57.78714
57.80449
56.29202
56.63045
57.51113
55.76891
54.57041
52.97967
50.71969
48.36829
48.1977
51.03572
50.55459
49.12927
49.82646
48.83886
47.68394
47.49009
48.33222
48.04421
46.83748
46.3798
45.13767
44.4407
45.19493
46.07101
44.97022
43.98021
43.69805
42.49319
41.17153
40.30285
39.49908
38.64771
47.5293
49.06364
48.66552
60.48656
62.76752
66.86555
68.30087
68.86081
73.52075
73.98427
71.84325
69.81016
68.53015
66.36942
66.84804
64.63318
63.68509
63.40616
61.49429
61.49398
74.76655
74.30823
76.07836
73.06276
71.25756
77.55774
77.12647
74.21886
71.83966
74.2704
74.1368
74.29346
71.56249
72.37803
69.4146
67.58713
67.07948
64.34237
64.49149
67.15281
64.35832
67.44059
65.92054
63.10908
60.73414
59.25313
59.99577
58.69178
62.46951
61.95669
68.13478
67.81801
68.0653
65.81063
67.64559
70.78876
75.01814
74.4847
71.64865
69.69374
67.52348
66.35751
64.50912
62.83704
60.55868
60.01449
59.53203
58.07617
57.78287
56.87624
55.11008
54.45793
52.56593
51.73837
51.63348
50.00323
50.45372
49.08202
47.94474
47.13725
47.73316
49.5608
52.77002
52.45217
67.97273
69.8661
75.86352
78.76113
80.74605
79.18847
76.75001
72.53215
71.84557
69.83374
70.48205
68.12404
65.58447
63.96772
62.75217
59.8713
64.59335
62.38383
61.6357
60.19457
57.54853
58.25935
58.09797
56.7324
56.86723
56.00957
54.96603
53.15631
51.21801
50.77172
49.77945
48.76092
47.843
47.99921
47.1257
48.03672
47.27481
47.07161
46.86364
49.17552
49.09298
50.6492
51.17211
51.47268
51.0032
49.47011
49.49011
49.65724
50.43815
49.45686
48.61994
48.71423
47.25464
45.50645
44.34099
44.62878
44.52315
43.41935
42.63511
42.63403
41.54875
40.67312
40.40361
44.0705
45.01832
44.02558
42.74733
43.58252
42.40519
43.60268
42.5532
41.15869
40.96093
40.14086
41.44866
