atr
0.0
0.02071
0.02852
0.03505
0.04684
0.05278
0.05758
0.06204
0.06475
0.06798
0.07098
0.07234
0.08646
0.08671
0.08623
0.09436
0.09405
0.09376
0.09492
0.09385
0.09429
0.09899
0.10263
0.12744
0.1312
0.12968
0.12828
0.12626
0.12152
0.11999
0.11642
0.11453
0.11563
0.11166
0.11868
0.11664
0.1133
0.11093
0.19872
0.22524
0.22343
0.21676
0.20913
0.20205
0.19834
0.19203
0.1926
0.19241
0.18652
0.18177
0.18022
0.17234
0.16575
0.17319
0.16582
0.16041
0.15324
0.15086
0.14937
0.14299
0.15563
0.14952
0.15026
0.14882
0.1439
0.14005
0.14148
0.14351
0.13755
0.13344
0.13033
0.13103
0.12667
0.12619
0.12432
0.12115
0.12179
0.11809
0.11465
0.11075
0.10927
0.13289
0.13268
0.14821
0.14405
0.14805
0.14747
0.14694
0.14501
0.13823
0.1455
0.14153
0.14142
0.13918
0.13567
0.13383
0.13284
0.13193
0.12893
0.12758
0.12704
0.13582
0.13826
0.13624
0.14651
0.14676
0.15414
0.15527
0.15561
0.15092
0.14443
0.14482
0.14448
0.14202
0.14044
0.14184
0.14385
0.14072
0.13853
0.14149
0.14567
0.14812
0.14754
0.14343
0.13818
0.13903
0.13481
0.13018
0.12803
0.1296
0.12463
0.12144
0.12634
0.1216
0.11934
0.11867
0.12305
0.11855
0.11365
0.11054
0.10764
0.11067
0.11419
0.11103
0.11096
0.11018
0.10802
0.10816
0.10329
0.10163
0.09866
0.10018
0.10874
0.1074
0.10473
0.10939
0.11229
0.1257
0.13529
0.13563
0.1338
0.12924
0.12858
0.14154
0.14214
0.14056
0.13481
0.13089
0.13369
0.13271
0.13037
0.12606
0.12063
0.11773
0.11432
0.11044
0.11326
0.11517
0.11337
0.10813
0.10327
0.10232
0.10358
0.1019
0.10105
0.09812
0.09468
0.09077
0.08929
0.08648
0.08459
0.08926
0.11646
0.11314
0.10863
0.10587
0.10259
0.09955
0.0953
0.09278
0.09044
0.08683
0.08706
0.08656
0.08609
0.0878
0.08724
0.08458
0.08139
0.07844
0.07569
0.07743
0.0769
0.0764
0.08023
0.08022
0.08234
0.07932
0.07794
0.07523
0.07486
0.07522
0.07628
0.08083
0.07791
0.07592
0.07264
0.06959
0.07034
0.0696
0.06891
0.06756
0.06559
0.06377
0.09135
0.09626
0.09367
0.09626
0.09439
0.09336
0.09526
0.0956
0.09449
0.09417
0.09101
0.08808
0.09608
0.0935
0.09111
0.08746
0.08407
0.0852
0.0884
0.10066
0.10133
0.10838
0.17206
0.2112
0.21612
0.20711
0.20731
0.20036
0.19962
0.19822
0.20549
0.20224
0.19208
0.18622
0.17649
0.16817
0.15973
0.15546
0.15507
0.14899
0.14764
0.14066
0.1399
0.13848
0.14502
0.15037
0.14678
0.15129
0.15191
0.14821
0.14476
0.14014
0.13584
0.13114
0.13034
0.12603
0.12274
0.11826
0.11624
0.11223
0.11135
0.10554
0.10157
0.09861
0.09513
0.09191
0.08963
0.08609
0.08565
0.08239
0.08222
0.08635
0.08446
0.09343
0.09676
0.09699
0.09649
0.09245
0.09085
0.08865
0.08517
0.08337
0.08099
0.07878
0.08172
0.08017
0.08016
0.08015
0.07728
0.07533
0.07281
0.07761
0.08278
0.08758
0.08704
0.08653
0.08393
0.08222
0.08206
0.0812
0.09254
0.09164
0.09081
0.10218
0.10417
0.11816
0.12258
0.17311
0.18646
0.19314
0.19006
0.18148
0.17923
0.17857
0.18796
0.19311
0.18431
0.17972
0.18188
0.17389
0.1729
0.16626
0.16439
0.15907
0.15843
0.15211
0.15196
0.15968
0.15613
0.15998
0.15641
0.14809
0.14823
0.14193
0.1375
0.13482
0.12876
0.12671
0.12837
0.1292
0.13855
0.13579
0.13681
0.13418
0.13174
0.12804
0.12247
0.11586
0.11187
0.10817
0.10901
0.11623
0.11507
0.11256
0.12166
0.12012
0.12011
0.11724
0.11458
0.11211
0.10839
0.10351
0.10326
0.11088
0.11439
0.1155
0.1194
0.12015
0.11514
0.12763
0.13637
0.13806
0.13749
0.13124
0.12829
0.13127
0.13332
0.12737
0.12184
0.11743
0.11404
0.11018
0.10659
0.10827
0.10625
0.10437
0.1012
0.10397
0.10583
0.10399
0.10085
0.10007
0.09649
0.10675
0.11483
0.12306
0.1207
0.12208
0.12693
0.12858
0.13225
0.1328
0.13832
0.13844
0.13569
0.13243
0.13083
0.13148
0.12638
0.12021
0.11448
0.10987
0.10845
0.10499
0.10606
0.1092
0.10783
0.10584
0.10685
0.10422
0.10106
0.10313
0.10791
0.10663
0.10258
0.10097
0.1009
0.09726
0.09389
0.09218
0.0906
0.08913
0.08419
0.0996
0.09677
0.09558
0.09304
0.09496
0.09318
0.08938
0.08942
0.08589
0.08762
0.08636
0.08876
0.08742
0.09118
0.08752
0.09556
0.0923
0.09642
0.09954
0.10171
0.09802
0.0953
0.09421
0.09177
0.08807
0.08535
0.08497
0.08247
0.08444
0.08198
0.07969
0.08043
0.08111
0.08103
0.0781
0.07681
0.07632
0.08016
0.083
0.08207
0.07907
0.07985
0.07843
0.0764
0.07451
0.07348
0.07037
0.06677
0.06843
0.07212
0.07697
0.07718
0.07881
0.08461
0.08714
0.0852
0.0834
0.08459
0.08997
0.08855
0.08936
0.09298
0.09348
0.09323
0.09086
0.08866
0.08875
0.0867
0.08765
0.08853
0.09006
0.08792
0.08735
0.08611
0.08496
0.08532
0.0828
0.08474
0.08226
0.08067
0.07776
0.07792
0.07736
0.07683
0.07706
0.07727
0.07604
0.07489
0.0724
0.07651
0.07676
0.07771
0.09501
0.09751
0.09912
0.11632
0.11802
0.12459
0.12283
0.12477
0.13014
0.12799
0.13099
0.12806
0.12677
0.122
0.12186
0.12387
0.12288
0.12053
0.11692
0.115
0.1375
0.13482
0.13876
0.13314
0.13005
0.13505
0.12898
0.12691
0.1207
0.12708
0.128
0.12671
0.12266
0.12104
0.11597
0.11197
0.10897
0.10476
0.10371
0.10701
0.1058
0.10896
0.10689
0.10854
0.10507
0.10471
0.10509
0.10115
0.10607
0.10635
0.11375
0.11134
0.11196
0.10968
0.11399
0.12013
0.12012
0.11726
0.11317
0.10794
0.10666
0.10261
0.09814
0.0947
0.09294
0.09201
0.09544
0.09577
0.09393
0.09222
0.08849
0.08574
0.0839
0.08219
0.08418
0.08317
0.08223
0.08278
0.08044
0.08112
0.08533
0.09138
0.09771
0.09644
0.14098
0.14877
0.15886
0.16251
0.16519
0.16125
0.16044
0.15398
0.15584
0.15114
0.15177
0.15022
0.14449
0.14059
0.13841
0.13281
0.13618
0.13002
0.12931
0.12436
0.11976
0.12263
0.12745
0.12191
0.11892
0.11685
0.12208
0.12265
0.11888
0.11754
0.11628
0.11512
0.11761
0.11421
0.11248
0.11445
0.10984
0.107
0.10864
0.11445
0.12342
0.12389
0.1229
0.1234
0.12102
0.11809
0.11537
0.11284
0.1155
0.11296
0.10846
0.10714
0.10378
0.10136
0.09912
0.0999
0.09991
0.09706
0.0937
0.09272
0.08895
0.08688
0.08925
0.09359
0.09262
0.09243
0.09369
0.09699
0.09364
0.09195
0.09038
0.0875
0.08553
0.08585
0.08686
