atr
0.0
15.21714
34.44449
129.93631
174.91729
199.33105
209.96384
236.65856
263.37081
288.46932
311.78151
328.56498
347.02105
354.57169
353.45943
372.16732
378.39894
378.16688
365.43996
369.48639
366.90379
378.2678
389.3701
382.35652
431.83106
467.46527
462.62918
463.29995
455.02067
445.07848
426.84502
470.18894
462.63545
467.25649
453.58817
456.95687
458.35352
524.54898
529.86691
537.77928
555.65933
558.16509
542.48901
535.05551
566.28869
577.85807
586.48249
585.39089
730.72011
731.8601
719.92438
720.53835
725.08204
710.81618
682.74003
670.27002
655.60788
655.89946
649.24807
643.90964
659.41752
678.03055
711.23194
763.64395
788.70938
772.77085
771.89222
743.06992
755.9935
745.89253
756.47164
787.43366
873.09483
860.23806
852.85177
830.00664
831.91974
817.8019
817.15748
810.66123
815.319
788.2705
785.03189
776.99747
774.53337
770.93313
811.6029
810.53484
812.80878
790.60458
766.77568
744.64027
738.86668
706.78478
720.91158
707.60861
728.44657
720.60253
701.86377
680.3535
693.20968
689.66613
692.24998
683.22927
664.10932
656.11937
695.68227
678.27639
676.26094
674.24516
663.5555
658.13868
675.47235
656.87646
718.52815
749.98756
738.90774
726.26861
701.393
689.87278
718.7183
714.94414
727.94955
724.04316
718.70793
695.51094
685.38373
679.70418
673.44602
661.7913
647.25193
641.50393
692.69936
698.93512
686.13619
676.40074
711.46855
713.58794
704.5638
694.80496
695.03746
679.45693
689.60572
666.71102
680.64452
658.08277
668.93043
651.08254
650.9795
624.21811
613.58182
636.60812
656.91968
648.60399
643.91799
630.21599
649.81056
656.15552
642.07298
701.5342
718.52247
732.23801
705.08244
685.92083
690.14077
674.82929
672.48506
654.50755
648.40344
667.40962
666.01894
678.02044
729.58398
722.59155
715.27501
709.25466
689.66361
698.26335
685.29597
660.21411
739.08025
756.63666
729.27618
707.55646
698.66671
677.17552
660.12012
650.1144
662.23623
643.58721
623.0217
614.93872
633.71881
615.22747
600.96908
594.86914
587.85206
600.12834
587.61917
589.16209
588.32623
606.09435
606.93261
584.02671
592.68266
584.85676
604.56985
677.10057
702.78696
712.85146
719.58064
685.92488
865.27096
915.57947
914.66236
907.26791
914.28377
902.63207
940.81978
938.88123
911.76257
910.59095
922.5566
887.02113
876.57391
864.82863
835.66587
835.84331
822.73736
827.1854
796.71716
784.86022
786.18592
770.93907
747.34485
731.0845
706.38347
696.9275
671.95268
666.74035
676.61247
659.39943
641.22662
662.16757
665.95489
643.00382
630.42641
611.68166
610.84726
600.46531
622.61493
617.43458
605.57854
644.46579
662.71823
679.21907
722.45842
716.72925
777.58288
795.34838
786.9035
762.97611
935.87996
1179.78496
1426.22889
1416.82468
1374.90721
1344.27741
1298.55902
1250.97695
1202.66288
1171.17339
1159.77243
1191.67369
1202.45485
1220.32808
1195.41464
1180.85074
1144.84569
1129.89385
1191.74358
1241.47618
1245.07217
1266.98273
1253.8011
1226.10317
1212.90937
1226.92299
1193.67277
1146.66829
1111.63341
1078.10031
1053.97457
1028.30139
1015.13629
1030.93084
995.8765
971.87817
942.05759
909.01991
872.57134
877.43053
848.97764
831.8528
819.7076
801.40563
772.61523
745.692
780.25686
782.98708
764.83372
742.89488
764.86382
806.62355
794.05972
771.90117
767.49966
757.93682
780.31848
771.64502
739.81323
754.72586
767.41687
759.49995
757.26567
761.29026
768.7431
767.45216
737.70844
775.96641
774.30023
805.32236
791.92434
773.19688
786.24211
836.86267
865.01534
869.91353
834.49542
821.94146
827.49064
791.19702
832.15509
813.76473
811.45725
796.63887
780.79395
776.98581
764.86254
748.94665
782.0976
780.90777
806.38507
844.50043
935.92325
997.30302
1074.40995
1123.15995
1125.53067
1123.41348
1129.19537
1126.45427
1119.19397
1176.98226
1243.12852
1285.44506
1304.07398
1298.4587
1267.23165
1228.88224
1218.10566
1238.82382
1227.72998
1188.06498
1200.22891
1220.96542
1226.8536
1225.4662
1240.29647
1218.64958
1195.93818
1222.24546
1271.95649
1276.95103
1291.52524
1269.09201
1232.76687
1172.65066
1147.24062
1101.147
1093.84293
1044.79701
1012.56793
977.80737
961.40398
931.08441
980.78124
974.18258
989.2774
991.91973
1000.00189
967.66461
969.25428
980.09326
969.42874
952.61169
923.69443
924.27268
935.74606
1025.9992
1025.9264
1018.71666
1106.0969
1098.96926
1075.9236
1143.73263
1136.21673
1103.65482
1136.03233
1292.86645
1686.70599
2137.65556
2242.47445
2194.81627
2324.31583
2270.86327
2252.6616
2219.53863
2220.7923
2199.59499
2170.05178
2205.36594
2285.69694
2263.86216
2206.81272
2103.5261
2065.98066
1978.41062
1908.67629
1853.11869
1786.75307
1766.27071
1710.57923
1659.07786
1675.49444
1634.42627
1587.43725
1553.12673
1680.76053
1669.9205
1607.68475
1558.23655
1518.12894
1490.48973
1563.77475
1557.77584
1570.06114
1498.87891
1433.5647
1392.39794
1367.44809
1320.46037
1338.85605
1326.61634
1309.44874
1299.80383
1251.55713
1233.10662
1224.094
1210.29157
1494.5136
1520.30263
1534.97745
1479.98977
1448.87264
1464.58603
1444.45988
1570.06989
1553.45133
1524.41909
1477.31201
1428.04901
1394.62337
1380.65813
1378.06397
1387.6644
1360.7048
1327.79946
1294.47307
1270.69928
1322.2579
1295.31091
1274.4637
1245.11915
1238.65278
1273.15973
1248.5076
1217.26563
1188.9638
1163.31353
1146.48971
1102.90187
1099.96745
1055.14835
1094.18418
1041.10817
1013.09473
971.39082
928.50076
906.91642
913.93882
943.71033
1028.46674
1053.20625
1099.65509
1106.82259
1219.26883
1244.30391
1268.52435
1250.47975
1346.08763
1377.7678
1400.15938
1389.08586
1356.19901
1322.77051
1323.50119
1313.02039
1295.73965
1265.97181
1222.44597
1190.48483
1204.90448
1176.11774
1178.63075
1164.36999
1134.77213
1085.44269
1065.5875
1099.06411
1111.03596
1105.67625
1080.17223
1069.68993
1075.88707
1048.50228
1041.64069
1114.25636
1120.59519
1111.39482
1097.33662
1073.65257
1089.03739
1075.53472
1063.51938
1031.44657
1037.05753
1004.44056
1010.26838
981.83492
989.09386
954.7843
977.81042
977.64467
964.98291
972.00056
959.11695
996.40717
971.54737
941.79399
912.50442
916.87124
890.2883
875.95342
873.90032
848.66958
845.16175
842.88448
849.22916
831.39494
815.34316
783.72936
841.85726
806.2546
827.46856
794.28509
794.97901
775.31551
758.48869
799.53093
782.54657
782.89468
787.33077
810.68572
798.54674
793.51911
775.6306
771.21485
743.67664
748.48188
758.37675
790.79769
769.68286
763.3248
750.59374
748.75205
725.19261
700.08743
746.33404
742.71661
728.48899
725.34906
722.71056
749.73981
735.87053
728.8905
748.34689
734.82211
713.15482
706.35162
686.72722
708.54384
712.525
695.65964
715.81467
703.96148
683.44566
668.30025
693.27809
706.55608
709.78136
723.9477
790.09429
796.63112
794.75462
815.07929
877.25219
863.98918
845.37352
832.98256
847.33523
832.08129
831.12977
844.22621
859.51505
850.64826
850.56196
857.20325
854.51945
822.64591
798.55406
785.04234
802.36218
861.90416
845.65744
836.61048
836.38116
851.94679
825.96059
858.54269
855.2425
855.89089
873.32726
869.73102
882.20095
905.39803
879.81245
863.73156
855.08145
842.50063
812.02202
822.79973
852.40403
832.33303
835.30139
819.53057
805.74625
801.20652
788.94605
778.9199
770.77062
740.92415
712.68314
713.20577
748.54822
724.07763
717.50637
697.5002
697.67733
668.72609
653.10709
625.22801
612.71172
595.0216
579.75577
561.20179
578.2588
587.4196
583.6182
577.4069
572.62998
567.68427
575.77682
605.64205
608.95404
601.81375
637.62634
623.86732
627.37894
621.9883
614.73914
611.54206
611.70548
604.0658
586.26253
570.19878
559.71744
552.90119
542.99039
554.06751
571.2634
576.42244
583.54084
588.00864
574.27945
578.9452
589.98697
585.87219
618.12275
602.34684
594.91206
586.70049
579.45402
664.77874
675.25883
671.25748
674.73838
668.20992
649.40493
639.75672
627.38267
613.60105
596.68169
580.60299
599.19421
