atr
0.0
3.55929
6.48648
9.72459
11.35855
13.30151
14.53426
18.83895
20.50403
22.21374
23.01776
24.50292
24.49057
27.71196
30.01539
30.37786
32.28801
32.29887
31.83466
31.16147
32.80351
32.38255
34.23594
34.22623
35.06792
36.28736
36.45255
36.65165
37.68582
39.31183
40.44456
40.51495
40.76388
41.2986
40.44584
43.32043
45.2304
47.91608
47.17422
46.93178
47.88522
46.67342
46.93532
45.10422
44.40821
43.92119
43.28396
43.87011
45.5201
50.26581
50.67539
50.46858
50.27154
54.27929
55.40505
55.62255
55.72737
55.98755
55.07416
53.20029
57.06313
56.27147
56.0978
54.30938
52.72586
53.44187
51.85888
51.44753
49.91699
49.03435
47.52118
49.84538
53.76143
51.78918
50.03352
48.65256
47.24738
46.81756
45.13631
44.51943
44.66947
52.96451
52.89561
55.80379
56.38637
55.0352
54.4484
56.12566
54.99954
53.46957
51.71603
50.82774
50.72791
52.88234
51.5986
52.3437
50.29629
51.0987
49.38665
48.21975
46.1362
44.47718
45.62881
44.58532
44.65566
43.6324
42.84223
42.63421
42.08819
42.72475
43.94156
42.93573
41.46104
41.10882
39.87533
38.44352
39.09184
37.73814
38.29756
37.4713
40.4205
41.19832
39.85701
39.71937
39.16655
38.61537
38.54999
38.31927
37.92075
38.50999
39.51927
38.81433
38.36616
40.04286
40.39909
39.26915
38.77921
39.82998
40.83856
42.45723
47.55528
50.93419
50.65747
51.59622
52.33434
51.58689
59.92497
60.69604
59.93776
60.09292
59.10914
61.0892
59.9214
58.2963
58.19013
58.33655
57.24037
58.43749
61.48838
63.81064
64.71131
62.61264
63.21174
62.21019
62.65375
60.85276
59.05114
57.26677
58.46557
57.79017
58.41088
56.84296
57.04917
56.51138
58.46271
57.30323
56.09657
55.0111
54.88959
55.27105
54.75383
53.47999
57.17856
61.84866
62.24161
61.56793
61.25165
58.98296
56.7856
55.37235
54.96218
53.03202
52.93831
52.227
49.6065
48.20604
47.59632
46.83658
45.67468
44.29006
44.20363
46.9398
46.79696
45.52503
45.07896
44.42903
45.50624
44.55437
45.11406
44.88805
43.28319
42.67154
42.83
42.27643
40.75454
40.27207
42.14692
42.13429
41.60827
40.98839
40.03779
38.94723
39.36315
39.30578
38.71322
38.66514
37.88548
36.73223
36.32207
35.36478
35.04158
35.21719
37.06596
37.38839
37.30136
36.47555
36.05015
37.44871
37.67738
38.05971
38.0633
40.13521
40.75984
41.67342
41.12389
40.02504
38.48968
37.62113
36.42462
35.68786
40.31873
39.43525
41.79916
40.37636
40.04519
40.99054
39.96621
39.97791
38.72163
37.49009
36.36508
35.33472
35.87867
35.67376
36.95778
36.49937
36.60513
38.4369
37.37855
37.04294
36.99273
35.87468
36.78792
36.02878
35.0253
34.26777
33.72079
32.97288
33.01553
32.30228
34.4964
35.05951
34.63098
33.76234
38.3136
38.44977
38.30907
37.64914
37.84491
39.28671
37.79623
37.5465
36.68103
36.06096
35.32232
34.09072
33.91282
33.03976
33.23477
31.91943
31.70376
35.14206
35.20692
34.92999
36.20928
34.80076
35.80928
34.9329
33.52769
33.60143
32.71918
32.55567
33.98741
34.24759
33.53919
32.43068
34.31992
33.75778
33.3858
32.58824
34.18836
34.2642
33.23675
32.62913
32.82633
31.75017
33.06373
32.49203
31.44974
31.39262
32.24243
33.84369
33.62557
32.73231
32.74786
32.1423
32.06571
31.61887
30.46967
29.4604
29.2968
28.61703
27.81224
27.92637
27.58663
26.73401
27.38944
27.71234
27.79217
28.06916
29.03922
28.65642
30.82882
32.19033
35.67173
34.52304
33.96996
33.31425
33.71323
33.88872
34.66381
33.84497
33.11033
32.39459
31.69712
30.86375
31.15134
30.36196
30.15111
29.44174
28.99947
28.40523
29.72057
29.2341
30.62595
30.49124
33.24186
35.32744
34.99906
34.48055
34.62908
33.38486
33.20452
32.62276
32.764
32.83657
33.20538
32.24429
32.06969
32.42472
31.57938
31.12299
30.52349
32.47967
33.94541
33.78717
35.38666
35.41832
36.8663
37.87228
37.98354
37.88258
40.38239
39.26865
40.55232
40.50072
39.33067
39.10062
38.44272
36.98967
37.80541
38.61502
38.38038
38.50321
37.93298
37.56705
37.02583
36.5097
35.49758
34.64847
35.91358
35.54189
34.90247
34.51015
34.02871
33.35738
33.49756
32.96488
32.20382
31.65855
31.97436
31.78191
31.81749
31.09624
30.73936
30.16227
30.5021
29.83481
29.25018
28.50374
29.34847
29.1643
32.84613
33.46141
34.51559
33.86519
34.70339
33.7653
33.40992
32.62421
32.62819
36.16904
37.44696
37.71575
36.3732
35.64868
36.22735
36.67825
37.11052
36.94477
41.51157
41.78503
51.17396
51.7451
50.80617
54.67715
56.4745
58.81204
57.99689
61.01854
60.42793
59.68308
61.87857
60.37296
59.69704
59.08653
56.60678
57.3613
56.87763
57.60352
57.88041
59.64252
57.94234
57.15503
55.04824
54.91051
52.69262
50.62172
52.19731
50.8825
52.58589
51.8919
56.49748
60.31766
64.65211
66.84339
67.82243
66.3094
66.04016
64.85443
63.55626
64.4351
62.44331
61.46021
65.62591
66.62835
64.98061
62.30771
60.20073
59.90068
58.71277
56.55686
56.21065
54.86275
53.36541
52.2636
50.45977
50.65264
49.03102
47.85595
47.55624
45.43008
44.5865
44.93461
44.35428
44.12183
42.79956
42.4503
42.76028
42.80812
42.0404
41.43537
40.3307
39.66708
38.47514
37.55763
37.57423
36.18536
35.07855
35.14936
34.63798
33.86455
32.58851
34.33933
34.8151
34.06973
33.43904
32.09125
31.4633
30.39807
30.54106
29.76884
30.07678
29.92273
30.13539
29.76143
29.65562
30.53379
30.1328
30.82546
30.79435
31.67547
32.4858
32.95181
33.3724
33.67151
35.81783
36.79799
38.25599
38.40127
38.86333
39.21594
38.53266
38.05104
39.53097
39.16519
39.63124
39.65758
38.96347
37.54037
36.5432
35.80011
36.19439
38.26908
38.65557
40.15589
39.65189
40.07319
39.62439
40.66122
42.40042
41.30467
42.17577
42.41321
40.92727
39.17818
38.57045
37.90756
36.86274
37.8404
37.87108
38.05101
37.69808
36.57179
35.92237
35.0972
35.16812
34.13182
33.70241
34.53724
33.62243
33.57797
33.56526
32.94917
31.89994
31.33995
30.84781
29.74154
29.15786
28.24372
27.00917
26.92066
34.12347
34.82251
34.92233
34.39573
33.54318
32.1501
31.02438
30.50478
29.84158
32.89361
34.08264
34.64531
36.81493
36.05957
36.24889
35.56326
36.37659
39.30041
39.90609
39.97709
38.6973
40.52892
40.54114
39.37177
39.52236
39.24862
41.15443
40.45769
41.20785
40.34801
39.74172
39.0566
40.76255
40.98594
40.95052
40.66834
40.50274
39.06398
38.45012
40.46654
39.52107
39.00742
38.38189
37.66176
36.78735
35.13897
35.7419
35.53033
36.62245
36.00156
36.70788
35.74732
34.91108
35.99457
37.07353
37.03328
36.62019
37.03375
38.44348
37.90752
36.75198
37.10112
36.38533
35.43638
35.67378
35.93708
35.59229
36.79927
38.98503
40.14182
41.75312
42.43718
41.5031
40.43859
40.58369
39.30414
41.83027
41.04597
40.25483
39.23877
42.136
42.13271
41.35109
41.47887
40.44538
40.17285
39.83051
39.20904
40.08125
40.92116
41.57251
40.7659
40.05048
40.15402
38.87587
38.4176
36.76848
36.29859
36.56298
