atr
0.0
3.88857
6.32082
12.15504
14.70325
21.41374
26.59276
30.27827
33.24482
37.08234
37.36146
41.04564
43.69452
44.67634
48.43375
55.95348
56.97537
57.81785
57.25586
55.79258
57.25383
57.01069
60.66707
67.80514
68.64406
68.6702
67.73733
66.7068
67.17346
65.46893
69.48115
70.60749
71.92767
70.21784
81.15156
104.9386
104.27084
106.69149
111.5271
112.11159
112.98362
110.24765
107.47353
105.58257
104.27024
99.40522
97.75128
94.41619
93.99789
91.11375
87.8442
89.17533
90.98138
90.36913
89.29277
96.129
97.4305
94.74403
97.49517
98.99695
135.13788
135.06232
132.82787
151.04802
153.6753
157.86064
154.44631
151.05371
148.41773
145.62075
142.8957
183.44029
190.55599
183.36413
178.69169
169.488
164.95029
157.78884
151.78892
158.50971
158.41545
157.20577
150.88393
148.52936
144.68798
143.48455
171.47137
179.76842
179.53067
171.95562
172.83308
170.09715
162.95449
157.90489
156.92239
150.27937
148.28298
145.60063
141.93201
137.51044
135.16041
130.16466
129.03004
129.0379
126.16162
124.75793
121.91808
125.85179
137.86309
151.1193
149.37221
146.3499
155.9542
160.9789
179.33755
189.59915
193.24707
190.64514
188.99477
193.33514
188.89335
184.18382
179.11855
172.44222
174.39707
172.43227
167.41854
164.2615
159.25782
156.43298
150.40919
145.59425
140.56966
134.61897
131.5719
131.23677
129.77128
124.04833
119.8856
115.91377
111.02636
111.70376
115.65063
116.07202
113.11902
109.11909
107.89344
103.38391
101.3572
100.75668
98.62906
99.32127
98.09118
96.59181
96.78383
100.44141
106.75131
116.82264
116.01817
121.18973
120.24761
115.39778
110.53794
109.63308
106.70786
102.63516
112.99979
109.6998
111.22768
107.76141
103.40774
99.96576
98.60892
96.169
95.62407
93.94878
103.00886
109.22037
108.66463
111.54145
112.83706
112.18512
116.66904
114.82911
112.50703
108.6451
117.43688
117.01139
115.132
112.77829
131.00841
127.79924
123.94501
119.27822
120.88549
115.98796
115.22739
111.19186
107.30173
106.91089
103.5444
100.03194
97.50394
97.87438
97.71478
95.90658
94.05611
90.65282
88.82047
86.47615
86.31643
84.9774
82.25044
79.73112
77.96461
80.76428
93.07898
97.94477
94.77657
91.00681
89.90204
86.4119
86.64105
87.14669
84.03049
81.82117
81.70537
79.84428
80.76683
81.94063
85.30344
85.38319
89.47296
86.75132
89.30409
86.40308
85.27215
83.96699
80.39792
77.90878
75.69887
74.62324
73.96158
73.19647
72.53958
72.27246
70.428
68.961
68.08022
66.36377
65.3035
64.63111
63.02532
63.05922
62.07213
60.66198
59.62684
58.80707
56.95513
56.02834
54.09703
52.10653
52.15749
52.1891
53.37702
52.06437
51.77192
50.78464
49.41359
46.97905
46.16198
45.62612
44.06711
43.19089
42.10868
40.72663
40.34187
41.63745
44.37478
44.14515
42.93193
41.65965
45.94181
45.61169
45.61442
46.20482
46.16948
45.51523
44.84271
44.07252
42.90734
49.22539
49.57429
47.81755
46.45558
45.77733
44.94109
47.3503
48.68385
57.23357
57.89403
59.81874
58.29526
59.09989
61.79204
62.48618
60.79431
61.904
59.64371
57.82845
55.39356
54.01331
56.85878
56.4353
55.74921
54.04355
52.86758
51.90775
50.68506
51.08541
64.99502
63.65681
63.96204
65.25832
65.50344
72.33891
73.77399
73.92227
75.57997
75.1364
73.69808
71.21036
70.17462
68.68286
71.7048
71.34517
70.03552
70.4987
75.46307
73.16428
73.36398
71.92512
70.58118
69.30039
75.21964
75.20396
84.39153
86.27356
87.88974
87.60904
91.52054
89.97193
92.66036
91.33534
89.23781
85.6644
86.75908
85.57843
90.01712
86.64375
89.77634
89.18232
86.19429
84.93327
83.18161
82.36435
83.28047
86.53187
84.99388
82.52217
83.76201
82.75116
83.62607
82.4385
82.31789
86.07518
87.90553
87.18442
89.81125
87.83187
87.08959
84.62034
82.3146
82.93499
85.74106
85.61384
83.37214
82.43484
81.23378
78.42423
78.39535
76.68783
74.42441
71.97767
74.19141
75.07416
75.81601
75.84129
77.5412
75.36969
74.23399
71.34228
70.57855
68.29436
65.19834
64.2006
64.00699
62.00649
63.06317
61.04937
59.30298
56.54063
56.5213
54.86621
57.16148
55.69351
54.52826
56.67196
55.62039
54.28965
53.45682
56.44919
56.01639
57.36165
58.35438
60.29836
60.14705
58.54369
58.09128
58.81762
56.4535
56.18111
55.32174
54.21519
52.35482
50.78376
49.32421
48.37605
46.58347
46.9618
46.6331
46.28216
47.22986
56.56702
62.00723
61.62386
61.65072
61.15924
61.32501
59.5168
59.6756
58.40091
57.43585
57.67971
56.50045
55.86542
54.58574
60.32962
59.86893
59.56329
58.82592
57.00978
55.23551
54.59583
52.78327
52.08375
51.25991
50.78706
56.66513
59.46333
57.69452
56.96492
62.59385
61.60786
60.02087
58.93009
57.61652
59.19819
59.16261
59.46242
60.71511
58.99188
57.21746
56.32122
54.75613
52.93783
52.47156
53.44573
57.67247
65.83872
68.27881
71.10604
75.55489
76.1324
92.69223
93.54278
92.71759
90.4199
88.96848
87.17002
85.4193
84.45435
83.1819
84.10962
87.98179
86.3238
83.44496
80.48461
77.33428
73.99754
75.88415
76.35742
78.53189
75.19247
73.40158
72.58361
73.05407
72.35878
72.00101
70.73951
68.57883
66.85677
63.64414
61.07527
59.33204
63.64475
63.27656
61.78752
59.78055
57.17408
54.93093
54.1723
53.39499
52.4032
54.08226
54.65353
55.09899
54.93621
53.03005
51.11362
51.48479
51.02087
50.3051
49.9683
49.81914
48.72277
49.29615
57.16071
66.46923
67.51357
66.85046
66.494
69.53514
67.48977
67.31907
65.16485
63.29594
61.15551
59.4194
59.95016
58.98729
58.46391
58.82363
60.14266
60.16247
60.65587
59.99759
67.60705
77.31869
77.03449
77.03775
76.68433
74.26188
73.02889
81.40111
79.14818
78.36259
76.10741
73.64474
72.44583
70.00327
67.96589
68.85547
66.57651
70.03104
71.55025
69.50952
70.41527
72.42275
71.2847
71.81865
74.21232
72.03929
72.86434
71.46546
69.3615
67.92211
66.35124
67.8383
66.43056
65.72052
64.98477
63.64514
62.41049
61.50474
65.7144
64.26123
63.26686
62.00637
60.46234
60.93432
58.84044
57.76112
55.8389
56.4954
55.15288
55.96981
54.0434
53.81244
51.83155
49.90073
49.02853
48.55578
46.84108
47.77958
46.90246
45.343
43.9535
42.59897
41.65904
50.24839
49.51922
50.45428
49.51612
49.73496
49.58675
51.53484
50.04164
48.61152
57.02641
58.11738
55.989
54.93407
53.88664
51.35045
50.04185
49.41243
49.7444
58.7448
58.16874
57.43097
56.37448
55.12987
55.00774
53.77933
53.06937
52.64013
52.03727
52.33532
51.93351
55.71469
56.54935
56.62797
56.42312
55.06861
54.42442
53.26768
52.03927
49.41575
48.84034
47.88817
61.69973
62.66404
61.18018
59.91731
57.62107
55.31671
53.50837
55.37349
53.89824
52.18979
52.24767
53.34283
52.69692
50.94142
51.45846
51.46429
51.77612
53.36997
53.90926
55.15574
54.93747
54.0498
52.93553
51.59013
55.30155
54.29073
53.95996
54.69853
53.99792
54.42664
55.35831
55.697
56.24365
55.37981
54.46269
53.05606
52.57277
54.31758
52.86489
50.66026
50.37381
49.1514
48.80415
51.96314
52.44577
51.78179
50.85952
51.2167
51.09336
50.98669
