atr
0.0
9e-05
0.00014
0.00016
0.00019
0.00022
0.0003
0.00038
0.0004
0.00043
0.00051
0.00062
0.00064
0.00069
0.00078
0.00083
0.00083
0.00082
0.0008
0.00078
0.00079
0.00075
0.00075
0.00074
0.00074
0.00081
0.00078
0.00081
0.00082
0.00081
0.0008
0.0008
0.00077
0.00081
0.00082
0.00084
0.00085
0.00088
0.00093
0.00092
0.00093
0.00099
0.00101
0.001
0.00097
0.00097
0.00095
0.00092
0.00091
0.00089
0.00084
0.00085
0.00087
0.00085
0.00084
0.00082
0.00082
0.00083
0.00086
0.00086
0.00085
0.00088
0.00091
0.0009
0.00094
0.00098
0.00106
0.00106
0.00103
0.00104
0.001
0.00096
0.00094
0.00091
0.00087
0.00085
0.00085
0.00084
0.00081
0.00083
0.00083
0.00083
0.00094
0.00094
0.00097
0.00099
0.00098
0.00099
0.00101
0.00108
0.00109
0.00107
0.0011
0.00107
0.00107
0.00102
0.00098
0.00094
0.0009
0.00088
0.00087
0.00084
0.0008
0.00077
0.00077
0.00086
0.00087
0.00087
0.00086
0.00085
0.00087
0.00092
0.00097
0.00099
0.00098
0.00097
0.00097
0.00098
0.00094
0.0009
0.00088
0.00083
0.00082
0.00081
0.00079
0.00078
0.00077
0.00076
0.00079
0.00079
0.00078
0.00082
0.00088
0.00087
0.00086
0.00098
0.00107
0.00109
0.00109
0.00109
0.00108
0.00108
0.00107
0.00105
0.00104
0.00102
0.00097
0.00095
0.00093
0.00095
0.00093
0.0009
0.00087
0.00083
0.0008
0.00085
0.00088
0.0009
0.00097
0.001
0.00101
0.00104
0.0011
0.00111
0.00106
0.00105
0.00103
0.001
0.001
0.00097
0.00094
0.00092
0.00091
0.00089
0.00086
0.00086
0.00083
0.00081
0.0008
0.00082
0.00086
0.00086
0.00087
0.00089
0.00088
0.001
0.00103
0.00107
0.0011
0.00115
0.0011
0.00108
0.00105
0.001
0.00097
0.00093
0.00088
0.0009
0.00092
0.00089
0.00085
0.00081
0.00078
0.00077
0.00079
0.00081
0.00084
0.00085
0.00085
0.00099
0.00114
0.00118
0.00118
0.00118
0.0012
0.00121
0.00119
0.00115
0.00114
0.00108
0.00103
0.00099
0.001
0.00098
0.00094
0.00092
0.00089
0.00092
0.00094
0.00096
0.001
0.00099
0.00101
0.00101
0.00105
0.00107
0.00105
0.00105
0.00102
0.00102
0.00099
0.00096
0.00091
0.00087
0.00087
0.00086
0.00085
0.00088
0.00085
0.00081
0.00078
0.00081
0.0008
0.00089
0.00089
0.0009
0.00092
0.00096
0.00099
0.00107
0.0011
0.00106
0.00104
0.00105
0.00101
0.00101
0.001
0.00096
0.00091
0.00092
0.00091
0.00088
0.00092
0.00092
0.00089
0.0009
0.00087
0.00084
0.00084
0.00091
0.00096
0.00095
0.001
0.00101
0.00105
0.0011
0.00111
0.00115
0.00116
0.00116
0.00111
0.00107
0.00102
0.00098
0.00093
0.0009
0.00093
0.00095
0.00097
0.00095
0.00096
0.00096
0.00098
0.00099
0.001
0.00104
0.00105
0.00103
0.00104
0.00109
0.0012
0.00122
0.00118
0.00116
0.00112
0.00109
0.00106
0.00102
0.00098
0.00095
0.00093
0.00097
0.00096
0.00096
0.00094
0.00093
0.00094
0.00104
0.00103
0.001
0.00103
0.00105
0.00113
0.00114
0.00112
0.00109
0.00112
0.0011
0.00107
0.00105
0.00102
0.00099
0.00096
0.00092
0.00091
0.0009
0.00088
0.00085
0.0009
0.00087
0.00089
0.0009
0.00091
0.00089
0.00087
0.00086
0.00094
0.00093
0.00098
0.00097
0.00097
0.001
0.00097
0.00093
0.00091
0.00088
0.00083
0.00079
0.00079
0.00078
0.00076
0.00073
0.00071
0.00069
0.00075
0.00077
0.00077
0.00078
0.00078
0.00081
0.00086
0.0009
0.00091
0.00106
0.00108
0.00107
0.00106
0.00105
0.00101
0.00103
0.00107
0.00102
0.00099
0.00097
0.00097
0.00096
0.00095
0.00094
0.00099
0.00096
0.00093
0.001
0.0011
0.00112
0.00124
0.00121
0.00129
0.00133
0.00138
0.00133
0.00127
0.00122
0.00119
0.00114
0.0011
0.00106
0.00103
0.00099
0.00094
0.00096
0.00094
0.00094
0.00091
0.00088
0.00085
0.00083
0.00086
0.00091
0.00094
0.00093
0.00094
0.00094
0.00102
0.0011
0.00111
0.00109
0.00108
0.00103
0.00099
0.00095
0.00096
0.00091
0.00086
0.00086
0.00085
0.00081
0.00079
0.00077
0.00078
0.00081
0.00083
0.00088
0.0009
0.0009
0.00093
0.00103
0.00102
0.00116
0.00117
0.00116
0.00114
0.00111
0.00111
0.00107
0.00101
0.00097
0.00093
0.00094
0.00099
0.00097
0.00094
0.0009
0.00089
0.0009
0.00097
0.00112
0.00112
0.00116
0.00126
0.00155
0.0017
0.00178
0.00178
0.00173
0.00173
0.00167
0.00159
0.00152
0.00146
0.00138
0.00133
0.0013
0.00129
0.00123
0.00117
0.00118
0.00117
0.00118
0.00119
0.00127
0.00125
0.00122
0.0012
0.0013
0.00133
0.00163
0.00174
0.00173
0.00174
0.00167
0.00161
0.00156
0.00153
0.00151
0.00144
0.00139
0.00135
0.0013
0.00128
