atr
0.0
0.04286
0.44301
0.5903
0.56777
0.58186
0.85816
0.8015
1.53782
1.82727
1.73246
1.71336
1.59097
1.59483
1.75342
1.90532
2.04851
1.99576
2.1407
2.01922
1.90892
2.01721
1.88777
1.75293
1.82736
1.80005
1.7029
1.68591
1.60192
1.50857
1.40081
1.55004
1.43932
1.3608
1.35646
1.30885
1.44429
1.3447
1.24865
1.20982
1.19054
1.18622
1.19006
1.17613
1.17998
1.86855
1.76294
1.65701
1.75901
1.7323
1.80142
1.77918
1.67352
1.67291
1.56306
1.58284
1.6005
1.4926
1.40492
1.55028
1.43955
1.33672
1.24874
1.16026
1.42024
1.6488
1.5671
1.69445
1.57806
2.19927
2.19682
2.10526
2.17989
2.34239
2.21401
2.35122
2.19185
2.03529
2.01634
1.90874
1.9399
1.87027
1.73668
1.65442
1.91374
2.37419
2.48532
2.44244
2.45369
2.31557
2.15017
2.10909
1.99666
1.85511
1.81582
1.73647
1.70101
1.61094
1.49694
1.98645
2.3267
2.38872
2.45953
2.38313
2.62077
2.43357
2.25974
2.14333
2.78988
3.20132
3.03194
2.84358
2.70511
2.51439
2.53908
2.4045
2.23275
2.55755
2.40951
2.28705
2.16262
2.20029
2.11884
2.06071
2.02316
1.87936
1.90941
1.8073
1.77785
1.95444
1.84805
2.09497
2.34926
2.3536
2.28513
2.17512
2.09868
2.07092
2.24442
2.14232
2.20537
2.05142
2.31274
2.53112
2.43282
2.56548
2.46687
2.47638
2.30736
2.25933
2.14581
2.04325
1.91123
1.88721
1.77527
1.64847
1.815
1.74179
1.64273
1.5404
1.44322
1.42585
1.46365
1.38624
1.35544
1.25862
1.16872
1.10774
1.0429
1.06627
1.13046
1.12257
1.2081
1.22074
1.26533
1.19709
1.12016
1.07979
1.14837
1.1617
1.07873
1.07846
1.01857
0.95546
0.89507
0.83828
0.80876
0.84813
0.78755
1.07308
1.30393
1.33472
1.30153
1.25571
1.17244
1.1062
1.0704
1.02072
0.96032
0.97494
