atr
0.0
0.30357
0.69546
0.949
1.09014
1.26977
1.49693
1.45679
2.14631
2.5155
2.82047
2.83258
3.21168
3.26941
3.30838
3.47921
3.55248
3.57981
3.69018
3.67159
3.58112
3.57283
3.4512
3.47361
3.4655
3.38868
3.31806
3.2307
3.10279
3.01295
3.37309
3.42966
3.37683
3.24384
3.14571
3.0028
3.03867
2.84198
3.65505
3.58041
3.49181
3.53882
3.48426
3.49074
3.40283
3.93263
3.99637
4.0552
3.98662
3.83293
3.82558
3.71196
3.5004
3.50858
3.5569
3.45319
3.41796
3.30632
3.33551
3.46798
3.22276
3.74364
3.75945
3.86985
3.98414
4.24599
4.17199
4.11828
3.83233
4.3468
4.38846
4.81964
4.91503
4.93645
4.87813
4.93434
4.59046
5.3015
5.21068
5.04456
5.02352
5.10326
4.7391
5.0706
5.15877
5.39921
5.74713
5.66233
5.52359
5.40619
5.70789
5.58876
5.37956
5.25924
5.22286
4.99551
4.84262
4.67458
4.34175
4.65234
4.93574
4.88855
4.86258
4.70561
4.79521
4.82555
4.98801
4.6803
5.14563
5.3988
5.47674
5.38912
5.21775
5.06756
4.94023
4.71093
4.51265
4.69746
4.89978
4.75623
4.65078
4.58894
4.4658
4.30467
4.1697
3.9165
3.80104
3.65275
3.49148
3.54566
3.46776
3.60006
3.76649
3.74531
3.62493
3.53815
3.44578
3.36037
3.49177
3.31914
3.31956
3.41995
3.58353
3.7447
4.10151
4.24104
4.09847
3.99929
3.83863
3.80337
3.81277
3.654
3.418
3.29565
3.14024
3.28165
3.43368
3.4777
3.39037
3.32534
3.3421
3.21981
3.18196
3.04754
2.89807
2.72428
2.72969
2.67864
2.72838
2.65885
2.61108
2.52493
2.54529
2.53134
2.50482
2.38876
2.55206
2.48299
2.48242
2.42939
2.41014
2.35156
2.28431
2.15686
2.02387
1.89752
1.80163
1.79222
1.84278
2.06651
2.23569
2.26207
2.3162
2.3179
2.24555
2.36123
2.25721
2.14027
2.09311
2.03396
