atr
0.0
0.55429
0.72398
0.85012
1.01654
1.1425
1.26518
1.34553
1.51085
1.58793
1.66022
1.84449
2.18845
2.30285
2.36336
2.35526
2.67203
2.70117
2.73252
2.91305
2.8864
2.80023
2.92522
2.98127
3.04547
3.03436
3.09048
3.10473
3.07654
2.97178
2.94666
2.87832
2.84273
2.79468
2.81791
2.75092
2.75943
2.87304
2.92639
2.94879
3.09388
3.10789
3.07232
3.01287
2.93338
2.86885
2.84108
2.83743
2.95976
2.93192
2.90107
2.9217
2.87515
2.81121
2.86184
2.791
2.75807
2.76106
2.74813
2.72398
2.87441
2.81624
2.96365
3.26196
3.44896
3.33689
3.22997
3.15426
3.08896
3.01832
2.91486
2.84309
2.83715
2.86664
2.7926
2.7467
2.70479
2.66302
2.65852
2.63077
2.58571
2.48102
2.58595
2.52624
2.47722
2.52027
2.57668
2.60835
2.53918
2.48995
2.39996
2.3471
2.32088
2.2401
2.17224
2.24565
2.21239
2.20008
2.17436
2.09619
2.14503
2.11253
2.08592
2.02693
2.12357
2.13189
2.09247
2.12158
2.07932
2.17151
2.18569
2.22386
2.17572
2.12674
2.13555
2.18158
2.10647
2.10101
2.13665
2.1176
2.13992
2.15706
2.09442
2.00553
2.22799
2.27171
2.29159
2.29933
2.23866
2.27876
2.36599
2.38699
2.43221
2.43633
2.51088
2.51796
2.47811
2.41753
2.37342
2.32532
2.31208
2.29836
2.52062
2.57343
2.57176
2.52021
2.46448
2.43059
2.35626
2.37795
2.36739
2.31043
2.24897
2.21976
2.15835
2.27489
2.26526
2.2306
2.27484
2.84449
3.22632
3.26801
3.18529
3.07777
3.01365
2.99053
3.0362
3.20719
3.14453
3.22278
3.19758
3.09061
3.02414
2.9867
2.87051
2.77476
2.70728
2.73818
2.70046
3.06685
3.08493
3.34672
3.76053
4.51335
4.78525
4.66631
4.613
4.60493
4.57172
4.78945
5.45521
5.76269
5.78178
5.76951
5.81883
5.80106
6.07099
6.00449
5.72845
5.52999
5.46356
5.22902
5.16909
5.1113
5.24978
5.35765
5.61782
5.9094
5.80445
5.62341
5.52888
5.38325
5.22588
5.25046
5.28614
5.15141
5.07774
4.8829
4.75484
4.56592
4.35835
4.28419
4.20674
4.08055
3.91194
4.09251
4.01591
3.96763
4.00922
3.90714
4.15091
4.17156
4.10931
4.02007
3.98221
3.92491
3.77527
3.62347
3.60251
3.53375
3.41706
3.33084
3.23792
3.12093
3.09015
3.03585
2.99543
2.99362
2.93336
2.91883
2.90177
2.81165
2.76367
2.90412
3.01811
3.01896
3.4569
3.83283
3.86477
3.80872
3.88167
4.08369
3.99914
3.95134
4.34768
4.39141
4.33631
4.24658
4.09111
4.50031
4.65101
4.72951
4.59097
7.39804
8.79818
8.7776
9.0592
9.05283
8.7762
8.7379
8.59376
8.41564
8.02023
8.45379
8.40352
8.42827
9.69196
9.86825
10.30623
12.01293
13.15486
13.51809
13.56465
13.50861
13.14871
13.12808
12.79751
12.32768
11.92785
11.583
11.58993
11.59851
11.7079
11.53448
11.14344
10.99248
11.22302
10.79995
10.39567
9.97312
9.74361
9.29907
8.95985
8.55986
8.16487
7.78595
7.40267
7.00176
6.66164
6.65723
6.41529
6.26277
5.974
5.74371
5.58416
5.35601
5.13986
5.11559
4.8709
4.67227
4.50568
4.31384
4.11571
4.11387
4.16646
4.04885
3.92679
3.77559
3.59591
3.46406
3.29377
3.19421
3.08748
2.96338
2.82742
3.02332
2.90308
3.09572
2.99174
2.9859
2.92191
2.87534
2.83353
2.73471
2.65866
2.70518
3.44838
4.03421
3.9332
3.90297
3.79776
3.64006
3.52506
3.37612
3.57426
3.79538
4.035
4.11678
4.14844
4.38641
4.38667
4.68762
4.9285
5.24575
5.19463
5.19858
5.03797
4.88026
4.95238
4.86578
4.7018
4.67881
4.63604
4.49775
4.83148
4.75566
4.59026
4.44738
4.22543
4.06218
4.00417
3.98316
3.93079
3.79716
3.65379
3.66638
3.77235
3.72861
3.673
3.67564
3.54452
3.39206
3.29191
3.22035
3.21032
3.09173
3.07303
3.06067
2.9192
2.79211
2.6591
2.5606
2.5577
2.52072
2.67424
2.65679
2.62274
2.6304
2.55251
2.49805
2.79533
2.79209
2.8198
2.86696
2.8036
2.74906
2.63698
2.54791
2.43235
2.46075
2.47213
2.50269
2.4375
2.41125
2.3283
2.22628
2.19369
2.11557
2.18231
2.13429
2.40041
2.43395
2.37081
2.54861
2.75443
2.74625
2.72438
3.51407
3.66163
3.69294
3.65845
3.5307
3.42137
3.58198
3.68613
3.68355
3.78615
3.63357
3.50546
3.54792
3.48164
3.37581
3.40897
4.06261
4.08457
4.16781
4.53154
4.48215
4.67199
4.73114
4.67677
4.97986
4.86701
5.1258
5.07967
5.75469
5.87293
6.15343
6.12962
5.99821
5.8762
5.72361
5.5555
5.45511
5.36188
5.37175
5.22377
5.0735
5.03182
4.83812
4.8454
4.72501
4.64894
4.51901
4.36408
4.31879
4.25388
4.25003
4.08146
4.11992
4.26779
4.18366
4.0184
3.88637
3.83734
3.72896
3.67046
3.56757
3.45846
3.42643
3.28383
3.28355
3.22044
3.17398
3.1837
3.302
3.32758
3.23918
3.29281
3.31546
3.30365
3.31624
3.25222
3.21064
3.33202
3.44045
3.38256
3.5638
3.44996
3.33996
3.27068
3.19278
3.07043
2.95112
2.87247
2.92872
2.8731
2.79787
2.76874
3.41883
3.84177
3.7445
3.75632
3.7523
3.70214
3.5877
3.45286
3.39623
3.3315
3.26282
3.27762
3.27922
3.20142
3.12203
3.08117
3.03894
2.94973
2.91975
2.8712
3.2404
3.22394
3.19366
3.16197
3.27254
3.23165
3.18582
3.2154
3.16644
3.10027
3.03025
3.07023
2.99522
3.04556
3.02445
2.93199
3.0897
3.10758
3.10132
3.07694
2.9793
2.90435
2.79904
2.69554
2.71157
2.73432
2.94401
3.05229
2.94142
2.99774
2.97433
2.86117
2.77251
2.6309
2.56798
2.44955
2.33816
2.30258
2.27168
2.19513
2.16619
2.11646
2.04814
1.99828
1.97269
2.03035
2.01175
1.9552
1.91697
1.86719
1.81953
1.83171
1.79444
1.84055
1.7748
1.72731
1.69679
1.65774
1.58575
1.53749
1.52981
1.54911
1.53203
1.68117
1.76966
1.75825
1.70838
1.63635
1.69018
1.73731
1.69893
1.63758
1.59561
1.56378
1.57137
1.54341
1.52246
1.50942
1.46589
1.45119
1.45824
1.44051
1.42048
1.39473
1.38796
1.41025
1.37166
1.79011
1.91796
1.89454
1.85636
2.0509
2.12941
2.04517
1.99051
1.88905
1.90054
1.86622
1.8172
1.81312
1.75647
1.75457
1.70282
1.67833
1.62988
1.7556
1.87449
1.85774
2.06076
2.03785
2.06443
2.0684
2.06351
2.00826
1.93553
1.86728
1.77033
1.69745
1.66406
1.6152
1.5984
1.56637
1.59591
1.54835
1.52347
1.48536
1.43284
1.38049
1.41546
1.38935
1.40726
1.50459
1.54927
1.51789
1.57018
1.57803
1.59817
1.54973
1.53475
1.47155
1.43287
1.55838
1.53349
1.55039
1.51465
1.47074
1.48497
1.63748
1.68766
1.66497
1.6239
1.65576
1.66249
1.63732
1.59465
1.55432
1.6133
1.67663
1.71044
1.72398
1.70727
1.71318
1.6751
1.70545
1.69577
1.67536
1.66212
1.59768
1.59499
1.56606
1.51063
1.49344
1.51177
1.48521
1.43127
1.41904
1.40696
1.38932
1.34937
1.33227
1.3664
1.38665
1.36689
1.33997
1.42354
