atr
0.0
0.07143
0.10276
0.11827
0.14411
0.18453
0.24849
0.28003
0.29288
0.36482
0.39091
0.53655
0.61323
0.68586
0.76972
0.88189
0.87461
0.89785
0.90015
0.87871
0.87666
1.01975
1.05549
1.08366
1.09269
1.07607
1.05349
1.01324
0.99373
1.02989
1.06132
1.05909
1.05272
1.14539
1.15714
1.15306
1.13213
1.16626
1.16439
1.15979
1.11909
1.09201
1.06401
1.01515
0.97764
0.93281
0.94904
0.91839
0.91279
0.93188
0.90389
0.88218
0.87274
0.83397
0.80869
0.82235
0.81147
0.79137
0.78413
0.74883
0.7532
0.73083
0.71077
0.70429
0.70041
0.68538
0.66214
0.62627
0.62082
0.62362
0.62408
0.6245
0.68561
0.70378
0.71565
0.71953
0.72957
0.72531
0.71422
0.69892
0.75257
0.79667
0.80476
0.77442
0.83696
0.83004
0.85718
0.89095
0.91231
0.88
0.90358
0.93618
0.92931
0.93864
1.04302
1.04138
1.08271
1.10323
1.068
1.03029
0.98598
0.95484
0.99164
0.97723
0.986
1.01557
1.02375
1.02919
1.02711
1.03017
1.01016
1.10801
1.186
1.19486
1.21951
1.26669
1.36621
1.50648
1.61174
1.65233
1.80359
2.05333
2.09952
2.06456
2.01495
1.96316
2.12508
2.294
2.29015
2.41656
2.48538
2.51643
2.43311
2.39289
2.38625
2.35152
2.39284
2.31192
2.31393
2.2665
2.23461
2.25428
2.16398
2.14655
2.16822
2.22478
2.28801
2.28744
2.31262
2.25386
2.21859
2.23154
2.21429
2.15041
2.09253
2.02949
1.96238
1.92293
1.90843
2.03783
2.11298
2.06991
2.02778
1.98508
1.92472
1.88295
1.85274
1.8204
1.82823
1.77693
1.78929
1.7972
1.99311
1.95575
1.86319
1.94725
1.99173
1.96875
1.93956
1.8703
1.83671
1.81123
1.90614
1.90142
1.86632
1.80658
1.74254
1.74379
1.84566
1.86811
1.8761
1.89567
1.99526
1.98489
2.06168
2.1087
2.16022
2.17949
2.76524
3.13987
3.17988
3.2006
3.18342
3.27031
3.26886
3.7068
3.62846
3.95857
4.54224
4.96351
5.2204
5.19252
5.07091
5.15156
5.1493
5.1115
5.24639
5.15736
5.09255
5.08165
5.24011
6.00867
6.29377
6.96635
7.21661
7.52971
7.65188
8.02103
8.9481
9.00752
9.35055
9.3448
9.3316
9.31863
9.1173
8.72821
8.63262
8.53243
8.15583
7.98113
7.91462
7.86072
7.49138
7.23771
6.95145
6.8492
6.55568
6.36742
6.14618
6.20074
6.01354
6.36972
6.19045
5.90685
5.91493
5.65386
5.44573
5.25961
5.12821
4.95691
4.9357
4.73458
4.59639
4.42879
4.39817
4.23544
4.16719
4.13382
4.05569
3.95243
3.86083
3.91648
3.78888
3.82896
4.37046
4.52686
4.85208
4.85122
4.86899
4.71692
4.66357
4.51831
4.37986
4.23058
4.1434
4.01959
3.99604
3.81847
3.64501
3.51536
3.36355
3.27044
3.2147
3.19936
3.22298
3.13205
3.27333
3.34595
3.39053
3.43406
3.36591
3.30406
3.20306
3.09712
3.02876
2.98099
2.97021
2.9559
2.92263
2.85387
2.90216
2.92629
2.84084
2.82578
2.78394
2.70795
2.81666
2.79119
2.6961
2.6021
2.7448
2.78875
2.91098
3.06805
3.29962
3.43036
3.40676
3.39199
3.27757
3.19274
3.1354
3.14716
3.0795
3.04454
3.14922
3.34141
4.15488
4.28954
4.38457
4.27067
4.27134
4.21624
4.1708
4.0336
3.86905
3.88055
3.75623
3.70364
3.62409
3.49594
3.40052
3.26477
3.12014
2.98442
2.86553
2.93871
2.89737
2.86613
2.96855
2.89508
2.84757
2.74418
2.72388
2.67717
2.66095
2.59016
2.6323
2.60427
2.59897
2.51333
2.50738
2.46471
2.44723
2.36385
2.42929
2.37077
2.39643
2.35311
2.39718
2.37167
2.34012
2.25654
2.2425
2.17946
2.08879
2.08387
2.12431
2.08043
2.04683
2.0592
2.01283
2.21191
2.3132
2.77512
3.05832
3.05416
3.34743
3.32119
3.79467
3.89505
4.39112
4.8489
5.36969
5.554
5.80943
5.95875
6.13741
6.05046
5.904
5.63371
5.52202
5.58902
5.83909
6.03629
6.75156
6.93573
6.88175
6.97734
7.12182
7.11954
7.12743
6.99762
6.84279
7.09045
7.04256
6.85809
6.78965
6.60468
6.49363
6.4098
6.95696
7.52717
7.81666
8.84904
9.54983
12.00484
13.46163
13.55938
13.76442
13.59696
13.69718
13.24667
13.30048
14.72258
18.22097
19.90804
21.40747
21.09908
20.91343
21.10533
20.61281
20.94118
20.47466
20.10147
22.1528
23.22474
23.9944
24.05194
23.64895
22.73688
22.12139
21.602
20.82329
19.78163
18.97508
18.179
17.5655
17.44011
18.18367
18.08198
17.54041
17.12467
16.75291
16.24984
15.95342
16.13389
17.30504
17.51968
18.47471
18.25723
17.73171
17.47802
17.17816
16.50115
15.95464
15.59859
15.80012
16.18868
16.22378
15.45065
15.13132
14.69408
14.85022
14.38235
14.54718
14.38238
13.87507
13.29042
13.64325
13.27944
13.24305
12.85426
12.99825
13.09194
12.59038
12.62178
12.41522
12.30485
12.09807
11.74535
11.63211
11.97982
12.41912
12.44704
13.33225
13.58066
16.4649
16.74312
16.26718
16.29381
16.41854
15.82936
15.29083
15.22292
15.05628
14.70726
14.57031
14.52529
14.7942
14.66604
14.85704
14.91582
14.83255
14.32594
16.08837
17.34992
17.69421
18.56319
19.28154
18.90571
19.2153
19.29064
18.68559
18.05519
17.39625
17.20009
17.11437
16.4662
15.89647
15.35172
15.56446
15.437
15.22578
14.8118
14.80167
14.49369
14.37057
14.43482
14.9559
15.03048
15.17116
15.06108
14.846
15.20414
15.95242
16.36153
16.05357
15.65688
14.9671
14.73374
14.27776
14.13435
14.19618
13.80717
13.97094
13.77087
13.34295
12.96703
12.9151
12.64759
12.07062
11.657
11.53865
11.17946
10.87735
10.54683
10.83634
10.83946
10.67236
10.27576
10.08606
10.12134
9.81268
9.5532
9.22868
8.97664
9.28473
9.57797
10.00668
10.28406
10.22592
9.89549
9.66724
10.13815
10.07543
10.45933
10.35509
10.62973
10.24046
10.30614
10.14713
9.96448
9.88773
9.90146
9.70279
9.54902
9.24194
9.08181
8.94025
8.82594
8.64981
8.61553
8.83371
8.5963
8.36514
8.20263
7.90173
7.83446
7.73271
7.6018
7.61596
7.42554
7.168
7.021
6.93878
6.73387
6.61717
6.60094
6.45802
6.21244
5.90298
5.81706
5.63298
5.46634
5.54731
5.68608
5.77279
5.56544
5.75791
6.15949
6.1081
6.32323
6.38157
6.40575
6.42177
6.25307
6.18999
6.11356
6.23974
6.16119
6.16753
6.62699
6.77149
6.7521
6.59124
6.649
6.58336
6.39741
6.26116
6.30965
6.70753
6.592
6.74542
6.77789
6.74019
6.65375
6.66134
6.58981
6.85911
7.07917
7.74495
8.10602
8.19845
8.3057
8.35172
8.56232
8.77286
8.75909
8.66058
8.54125
8.46617
8.38287
8.26766
8.05712
8.24661
