atr
0.0
9.63857
13.04082
15.63862
19.82729
22.32534
25.5171
27.03659
30.59612
33.26283
34.1812
38.85825
49.79695
52.67217
54.20701
54.44223
59.70778
60.37651
60.05533
67.25567
67.96883
68.12034
68.04032
67.59101
68.06451
67.06276
69.06399
67.53228
66.18283
64.54048
65.28331
64.0145
63.13775
62.9022
64.0699
68.49205
68.17476
70.55013
70.85012
71.64654
70.55322
70.29227
69.05711
68.55303
66.15496
65.67603
65.00132
63.20551
66.25011
64.82439
64.63622
62.98721
61.54598
60.29269
61.25179
59.70237
59.47363
60.42766
60.75425
59.84038
65.26178
63.59165
65.84439
76.09908
79.967
77.76293
75.41486
73.77523
71.48843
69.30997
69.01997
66.7614
66.19773
64.61575
63.09677
62.302
61.63757
60.37989
61.33204
59.86475
58.19512
56.5869
59.75855
59.25508
58.03115
61.12249
64.0666
63.33827
62.2284
63.00708
61.13015
60.44585
58.97901
56.78051
54.6219
60.21748
59.59551
61.51941
62.26445
61.31413
60.31741
59.20973
58.5519
56.60248
65.97801
65.19244
64.72227
64.50139
62.69843
63.56355
64.59615
64.06071
63.73495
62.19102
62.41809
64.27537
62.46713
61.73519
62.05768
63.55427
62.72897
63.11261
61.29243
60.29082
61.12219
59.10061
58.32985
57.51986
55.55201
56.01973
55.81832
54.70915
56.4535
56.31825
58.32052
58.86405
56.99876
54.74028
53.80812
51.73254
49.62664
50.48902
49.60624
48.99222
49.01849
47.84003
46.72574
46.88247
45.24444
44.22698
43.97934
43.07296
41.73989
40.54204
39.94118
41.24324
40.88015
40.28085
39.03793
48.63594
58.16194
60.43609
58.99423
57.61392
55.20007
54.58007
53.90006
62.67577
61.14465
61.09003
61.02788
58.45589
56.1669
54.22641
52.51452
50.66705
49.76227
51.49353
50.19828
55.21626
56.00581
59.89968
75.95113
88.64962
90.16679
87.20702
83.92438
80.75335
80.69883
83.70248
95.32588
100.53188
100.17675
98.24841
100.51638
112.00593
124.86407
126.73093
121.97086
120.03508
119.06615
114.07714
115.08449
119.54131
124.18979
125.29552
126.65441
131.17838
128.06207
123.08906
125.38699
123.40077
118.95643
115.66597
114.83626
110.59724
108.24672
106.0091
103.00702
98.74081
94.97218
90.91274
88.14397
84.82226
81.15995
88.63781
88.11368
87.88199
91.03042
90.67111
105.69603
107.57417
106.21958
105.21461
107.52428
109.58969
108.634
105.89014
105.07728
103.99676
101.39199
98.36542
95.68289
92.21625
92.17295
90.27488
88.07596
91.79339
88.19886
89.0418
86.89382
84.49283
83.03477
82.93086
83.25008
82.33651
85.13318
95.02867
94.88377
92.26778
91.16794
97.43666
95.17904
93.27625
104.70509
112.27973
111.40975
110.29477
106.753
113.86778
116.98937
119.77584
114.89971
236.48045
270.73184
280.50743
286.9219
287.92747
276.78837
274.13849
266.41288
260.53767
250.5107
264.1985
268.56575
266.9332
347.34511
360.24903
383.6291
463.00131
480.98765
482.84567
479.82455
473.19423
469.32321
469.65727
466.92746
450.54836
442.15205
433.63904
437.87911
445.71917
453.09638
446.80378
431.94637
429.09305
445.71284
437.38692
423.54
405.79
395.45285
380.43051
367.25547
353.59365
337.25482
325.59162
311.40579
297.96537
284.53928
283.02504
275.73754
272.89914
263.40635
256.24947
250.81379
241.4178
232.45796
231.13954
219.13385
211.73215
204.357
199.13578
190.11108
186.65029
189.19241
188.5551
181.41331
173.85878
165.29601
161.01487
154.29809
147.56252
143.52876
137.36671
131.45052
140.02477
134.87514
147.66977
142.54336
141.95026
136.60953
133.27885
131.5275
126.45625
123.27581
126.25611
171.41067
203.69919
198.53711
197.02874
189.79526
181.70417
174.9453
168.00635
166.6659
174.83262
179.51958
179.05389
174.7029
189.27698
187.74862
201.85801
216.09601
228.73701
230.76222
231.37278
222.49472
215.53081
222.09147
221.58493
215.90315
215.4815
210.76782
208.04726
218.16531
213.88136
207.09127
200.87046
190.69686
183.8478
182.07295
182.76774
181.07505
174.64111
169.07104
169.49453
175.28849
176.63074
176.28141
175.38273
170.3554
164.20787
158.54945
156.0102
156.93804
151.50318
150.13939
150.14586
142.82401
137.19301
130.73351
126.42826
129.15267
128.27748
129.86123
128.57186
129.0303
130.81527
127.49633
123.9973
141.73964
139.82966
140.15755
144.36058
142.51054
140.1805
134.33832
130.82701
126.07508
128.104
125.22015
125.29442
120.75339
119.66529
116.62991
111.62849
110.04574
106.0989
105.01255
102.64737
110.77756
112.18845
110.45713
119.74376
125.12492
125.44171
124.66945
151.04949
156.36953
160.00384
160.02571
154.6653
149.55207
151.88764
154.57423
151.25893
153.14758
147.03989
140.57562
138.67093
136.12372
131.54274
132.07397
155.45583
158.42399
164.82942
175.84232
174.63929
176.18934
176.62868
171.81591
184.10549
180.25367
186.02698
182.7072
206.79954
218.36457
225.47996
220.94568
216.67599
213.01413
208.48955
202.96958
202.05604
197.19918
198.14567
194.30526
190.3506
193.55056
186.95552
192.31227
187.72353
184.74328
179.43733
173.58752
171.9477
169.00001
169.46643
161.41026
163.40453
175.08849
174.01074
167.2414
162.42487
159.37524
153.80129
151.75692
148.42285
144.82122
143.05327
137.53233
136.03216
134.12201
134.35615
135.39142
142.97275
145.5847
142.55008
144.12721
143.11741
142.45974
144.45762
141.02207
143.86049
149.7276
154.53063
155.7063
163.08942
157.73875
152.16098
149.03448
147.16416
142.25172
136.99588
132.74975
133.03834
131.04846
127.90214
127.28627
155.99511
178.06689
175.17568
169.99456
168.82638
165.62664
160.38545
154.13792
157.02092
157.38514
154.60406
150.93949
154.58666
154.18547
149.8458
147.64253
149.72306
146.73998
145.81356
142.82187
151.8646
151.05855
150.46723
149.07314
152.49649
151.19531
149.54922
152.36642
150.16596
147.92696
144.99789
144.93876
140.57885
140.48821
139.03548
134.98724
134.75386
134.18287
132.99338
129.99671
127.36123
125.35043
121.11111
118.4046
121.44713
126.82305
144.29069
147.2385
143.78432
150.08544
148.85719
143.77454
140.81636
134.69876
131.34313
127.23148
122.71995
118.52567
117.05812
113.18897
112.43118
110.21253
106.23306
104.35784
103.19871
103.18452
102.38562
101.12379
98.64566
95.09955
92.31172
92.10517
89.94909
96.23844
92.96712
90.61661
88.99828
87.64126
83.31689
80.10925
80.78788
79.53874
77.53597
77.31769
79.45428
79.11112
77.1439
73.61719
75.77596
79.05768
78.29856
76.46938
73.51656
71.69252
72.3252
72.38054
72.99908
72.99843
71.17211
69.42982
69.84197
68.36183
66.2767
65.08194
63.41609
62.18994
60.46065
84.70132
90.0798
87.73267
85.03319
92.91368
94.02485
90.91593
89.47765
85.15782
86.43226
84.26138
82.71271
83.57966
80.91826
81.72195
78.23967
77.23112
74.90319
84.86296
94.92346
93.0675
92.48339
92.75601
91.31915
91.21778
89.98794
86.58594
82.69123
79.55472
75.90152
74.60284
71.76978
70.6498
69.93696
68.6486
72.60227
71.72782
72.84727
70.74389
68.61933
65.95937
68.7437
68.11915
66.3935
76.32539
77.82858
76.42011
75.89867
74.70163
73.81151
72.34283
73.52048
70.51402
69.27159
78.96719
78.73954
81.33028
80.29955
77.6053
76.74563
80.48237
81.93149
79.33352
79.15256
82.35595
82.64338
80.66742
78.65547
77.05365
81.27981
82.75697
88.18219
89.63632
89.61087
88.59937
87.85871
86.72594
86.74552
85.69512
85.39976
82.74263
81.38887
80.86109
77.74959
79.50176
83.86235
83.6729
82.68197
82.20469
80.32507
78.73042
76.09111
73.84746
71.94049
71.44474
68.29583
67.28185
75.846
