atr
0.0
0.68571
1.16531
1.31064
1.62417
1.78673
1.96625
2.49009
2.68365
2.76339
2.70886
2.71537
2.76427
2.70254
3.61664
3.90117
3.95109
3.92601
4.03844
3.96426
3.91682
4.02276
3.96399
4.10942
4.70875
4.63669
4.7555
4.80154
4.67285
4.71051
4.75976
4.65549
4.78724
4.74529
4.98492
5.05028
5.21812
5.10254
5.01664
4.82974
4.7419
4.62462
4.53715
4.41307
4.38356
4.22045
4.4047
4.46151
4.66426
4.66681
4.66918
4.48567
4.35098
4.19734
4.26896
4.27832
4.20129
4.1512
4.31897
4.27476
5.26942
5.30732
5.62822
5.75478
5.86515
5.96764
5.76281
5.61547
5.57865
5.38017
5.3173
5.38035
5.53176
5.62235
5.50646
5.46314
5.35863
5.26159
5.28576
5.07964
5.00252
4.81662
4.73687
4.7128
4.49046
4.46971
4.49331
4.45807
4.45392
4.26436
4.18119
4.1111
4.23888
4.17182
4.15955
4.20529
4.51206
4.38262
4.38387
4.22073
4.10497
4.0189
4.13183
4.11527
4.04275
4.06827
4.03482
4.51805
4.98819
5.05332
4.99951
4.81383
4.76999
4.57927
4.47361
4.35407
4.2002
4.0859
4.0012
4.08683
4.19491
4.12384
4.25786
4.51801
4.46672
4.32624
4.52437
4.5012
5.62968
6.80614
6.8057
6.62672
6.59624
6.51079
11.08859
14.41798
15.13098
15.48591
15.78692
15.42357
15.11474
14.87083
14.68006
14.38862
14.05372
13.65703
13.03153
12.93642
12.66239
12.45079
13.11859
12.98155
13.50429
13.48256
13.21238
13.00435
12.5969
12.51855
12.22436
11.98691
11.7807
11.43922
11.09356
10.51545
10.24292
10.07557
10.13446
10.04628
9.77155
9.65215
9.74128
9.54548
9.22794
8.99023
8.64807
8.56607
8.33278
8.08044
7.85326
7.63517
8.10409
8.04665
8.05046
7.83972
7.81545
8.08578
8.27965
8.10253
7.95235
7.74147
7.57422
7.45463
7.68645
8.0017
7.88729
7.60963
7.44465
7.24861
7.08799
7.33171
7.68659
7.72326
7.42874
7.29097
7.16305
7.15854
7.7615
8.12854
7.84079
7.73787
7.37803
7.08674
7.25197
7.43397
7.38869
7.47521
7.31984
7.20414
6.96813
7.04183
6.95313
6.97791
6.72234
6.74217
6.61773
6.64504
6.57039
6.52965
6.44182
6.26026
6.04881
6.03104
6.05739
5.83901
5.60051
5.54333
5.43309
5.20216
5.31629
5.20084
5.35792
5.38236
5.2479
5.13734
4.98467
4.88577
4.78678
4.70201
5.04473
4.97725
4.8503
4.96813
4.89898
4.96334
4.79453
4.74492
4.58457
4.38567
4.31527
4.2856
4.88663
4.88759
5.03847
5.00715
5.11379
5.44852
5.68791
5.80306
5.73141
5.72917
5.59137
6.09913
6.12062
5.95486
5.78666
5.99475
5.8237
6.52915
7.6985
7.85575
7.61605
7.32205
7.02761
6.74707
6.50085
6.32222
6.13492
5.98242
6.06225
5.9078
5.77153
5.66642
5.53311
5.28788
5.21732
5.10894
5.05116
5.02608
4.84564
4.81381
4.94854
4.80936
4.82298
5.02848
4.94073
4.73782
4.69226
4.53567
4.42598
4.47412
4.63312
4.54504
4.51325
4.53373
4.56703
4.41939
4.51086
4.38151
4.48283
4.68406
4.64234
4.56789
4.69875
4.64884
4.7525
4.92732
4.90394
5.0108
4.88146
4.84707
4.80799
4.62885
4.66965
4.64324
4.46873
4.37096
4.5016
4.46578
4.36108
4.51386
4.7843
4.58542
4.37932
4.28079
4.34645
4.31456
4.36352
4.33756
4.74916
4.98851
5.19647
5.37529
5.11991
5.15421
5.03605
4.86919
5.18567
5.2867
5.06622
4.95435
4.94332
5.05451
5.20776
5.09292
5.04343
4.86175
4.85734
4.92468
4.98006
5.03148
5.37923
5.46643
5.49026
5.40524
5.36915
5.20707
5.12799
5.00456
5.04709
4.94373
5.03346
5.11679
5.17273
5.15325
5.17802
5.14387
4.92645
4.79599
4.73199
4.72971
4.6133
4.50521
4.34055
4.23051
4.09976
4.08549
4.05081
3.99004
3.83361
3.77407
3.79735
3.75468
3.68649
3.61602
3.66488
3.5531
3.47074
3.46569
3.48957
3.57602
3.49202
3.42831
3.38343
3.32033
3.18316
3.09865
3.01303
2.97639
2.97807
3.28678
3.28058
3.3534
3.40673
3.56339
3.68029
3.7817
3.76158
3.80718
3.82809
3.82609
4.19565
4.20311
4.55288
4.62054
5.24764
5.59424
5.75179
5.58381
5.53496
6.29675
6.32555
6.24516
6.44908
7.35271
8.20609
8.39137
8.19913
8.10633
8.07731
7.80036
7.93605
7.96204
7.88618
7.68003
7.78145
7.79707
8.70442
9.0041
8.78238
8.49792
8.37664
8.22831
8.10486
7.92594
7.72409
7.47237
7.33863
7.11444
6.99198
6.87827
6.97268
6.86034
6.97032
7.04387
6.99073
6.90568
7.31956
8.12531
8.35921
8.2407
8.33779
8.62081
8.23361
7.93121
7.67898
7.46619
7.47575
7.33463
7.09644
6.83955
6.6653
6.62492
6.45885
6.39036
6.13391
6.22434
6.10832
6.07201
6.45972
6.46974
6.25048
6.18258
6.05526
5.9156
6.1002
6.07161
5.87364
5.76838
5.75635
5.65233
5.65573
5.57318
5.64652
5.5932
5.67226
5.63853
5.59292
5.76485
5.50308
5.57428
5.37612
5.6064
5.45594
5.23052
5.03548
4.83295
4.75202
4.74116
4.78108
4.81815
4.70256
4.68809
4.60323
4.62443
4.61554
4.87157
5.03075
6.64284
6.84692
7.28643
7.22311
7.45003
7.58217
7.5263
7.31014
7.06656
6.82609
6.68137
6.56127
6.36404
6.13089
6.05011
5.98225
6.13352
5.98826
5.95339
5.78529
5.79348
5.64395
5.69795
6.03381
5.94568
5.76385
5.73072
5.50709
5.45659
5.42397
5.50798
5.44312
5.22575
5.15249
5.06302
4.92995
4.78495
4.64317
4.56866
4.69947
4.74236
4.91791
4.96663
4.86901
4.76408
4.68808
5.53893
5.73615
7.01214
7.12556
6.93087
6.83581
6.57611
6.43496
6.23246
6.31586
6.15044
5.87541
5.71288
5.54053
5.40192
5.64464
5.61288
5.87625
6.09937
6.03513
5.87548
5.64866
5.43804
5.49961
5.41392
5.31293
5.46915
5.37849
5.22289
5.21411
5.09882
5.31319
5.14796
5.20882
5.10105
5.0224
4.8708
4.81574
4.85748
4.7248
4.88731
4.89536
4.85284
4.79192
4.68535
4.52211
4.44196
4.42468
4.4872
4.49526
4.52417
4.47244
4.43155
4.40787
4.54302
4.71138
4.60342
4.60318
4.53152
4.61499
4.61392
4.53435
4.36761
4.35564
4.45166
4.66226
4.74353
4.61185
4.62529
4.55205
4.43405
4.3459
4.18548
5.89366
5.93697
6.09861
6.07014
5.98656
6.18038
6.04607
5.99277
5.81472
5.61367
5.52698
5.32505
5.41612
5.22211
5.21339
5.40529
5.22634
5.14589
5.02832
5.04773
5.04432
4.99115
5.04179
5.04594
5.01409
4.87023
5.0295
4.94168
4.91013
4.87369
4.83271
4.83752
4.94912
4.91704
4.88725
4.85959
4.77677
4.72843
4.76211
4.65053
4.88978
4.73337
4.65955
4.59816
4.67686
4.82851
4.97648
4.97816
5.78686
5.97351
6.03969
6.05828
6.04698
5.92934
5.91296
5.7406
5.57342
5.38246
5.25514
5.15834
5.41846
5.48857
5.51796
