atr
0.0
0.13286
0.31694
0.46787
0.6916
0.90077
0.98428
1.19469
1.24507
1.30685
1.34851
1.50504
1.72539
1.86572
1.93389
2.01504
2.08253
2.0495
2.04453
2.02492
2.01814
2.0697
2.00758
2.01347
2.03894
1.99044
1.95184
1.92885
1.89822
1.83692
1.76642
1.78525
1.77487
1.74953
1.70099
1.65092
1.65442
1.60911
1.5906
1.63484
1.71664
1.69474
1.78583
1.79113
1.74962
1.70179
1.65166
1.5994
1.79158
1.89147
1.87065
1.87203
1.8376
1.79134
2.02625
1.98437
1.96763
1.90994
1.96281
1.92618
2.01574
2.03747
2.32694
2.53644
2.55527
2.5706
2.49199
2.40685
2.3985
2.47861
2.44728
2.36962
2.42821
2.7312
2.7154
2.64644
2.91884
3.05464
3.02788
2.96446
2.972
3.04185
3.03886
2.98894
3.05831
3.18128
3.19976
3.16335
3.21168
3.21371
3.1163
3.05013
3.10655
3.08537
3.03284
3.03264
2.9796
2.93391
2.90863
2.85087
2.98367
3.01055
2.94337
2.86884
2.80749
2.84196
3.03968
2.96041
2.89181
2.93454
2.85922
2.84356
2.77473
2.70511
2.57903
2.47196
2.39182
2.30526
2.25345
2.19892
2.30828
2.32555
2.2573
2.43249
2.40374
2.36133
2.27338
2.25099
2.31378
2.2478
2.27938
2.27657
2.33181
2.3124
2.21008
2.12294
2.08844
2.01855
1.97437
2.04906
2.06412
2.00669
2.01478
2.48372
2.91917
2.8278
3.07225
3.02209
2.98479
2.88159
2.84291
2.7877
2.74429
2.68399
2.64299
2.54635
2.66232
2.73216
2.62343
2.6889
2.67541
2.76645
3.07527
2.98847
3.02572
2.93103
2.83952
2.76884
2.85321
2.88513
2.92619
2.86718
2.76238
2.80435
2.85332
2.83023
2.72593
2.64408
2.6295
2.51311
2.4786
2.42084
2.40864
2.37088
2.51867
2.45163
2.46651
2.40819
2.38475
2.30155
2.33715
2.35521
2.45841
2.43067
2.36991
2.29706
2.28869
2.29236
2.35291
2.3877
2.32501
2.2375
2.2284
2.27994
2.23566
2.23954
2.20029
2.15741
2.12402
2.07659
2.06184
2.06528
2.03847
1.99572
1.98531
1.98565
4.02882
4.0089
3.94184
4.07742
4.01118
3.86395
3.68581
3.71468
3.65577
3.51036
3.40891
3.37041
3.22681
3.1249
3.24241
3.17152
3.60427
3.66539
3.57501
3.47536
3.53284
3.51549
3.42367
3.51627
3.5151
3.42545
3.32792
3.24807
3.18749
3.08124
2.93901
2.9248
2.98731
2.9625
3.13375
3.13277
3.40043
3.34469
3.20721
3.12312
3.49861
3.45585
3.83687
4.06709
3.9973
4.06678
3.88986
3.82202
3.73544
3.60005
3.51291
3.36413
3.27383
3.15999
3.03999
2.9707
2.91351
2.81612
2.76068
2.64849
2.58503
2.54895
2.5226
2.42884
2.36821
2.37262
2.26172
2.26088
2.21582
2.28255
2.36165
2.28153
2.25142
2.17275
2.10041
2.0311
1.96102
1.89809
1.82108
1.74886
1.76894
1.68902
1.63552
1.59869
1.76165
1.77153
1.8907
1.90208
1.99693
1.97215
1.89486
1.84451
1.87847
2.01001
2.06501
2.03679
2.0906
2.08055
2.09766
2.05139
2.01915
2.16636
2.09876
2.12456
2.23066
2.33062
2.562
2.52543
2.49433
2.42188
2.39817
2.34116
2.60036
2.63319
2.64654
2.79393
2.82079
2.70645
2.62384
2.53571
2.50816
2.43472
2.59081
2.55647
2.48315
2.4115
2.37996
2.31853
2.24078
2.16001
2.12144
2.09562
2.09951
2.06383
1.97855
2.06437
2.01477
2.013
1.9385
2.11933
2.22437
2.33263
2.32816
2.35972
2.48188
2.46032
2.45815
2.39328
2.44734
2.43395
2.34296
2.32632
2.31301
2.25351
2.22326
2.15731
2.23393
2.20222
2.23421
2.17462
2.21786
2.26373
2.20561
2.19021
2.11233
2.09288
2.03839
1.99422
2.01535
1.96282
1.88905
1.81054
1.78836
1.72919
1.71425
1.66181
1.63525
1.60773
1.53646
1.501
1.8345
1.81347
1.92536
1.92569
1.94314
1.87006
1.84577
1.77464
1.7036
1.71834
1.79846
1.78428
1.80755
2.16915
2.19064
2.19917
2.22208
2.18122
2.20685
2.14922
2.3307
2.41851
2.37933
2.28081
2.25075
2.15355
2.0983
2.15199
2.23256
2.21524
2.13415
2.09885
2.00036
1.92605
1.93062
1.87915
2.00921
1.94641
2.00666
2.03476
2.02656
1.99966
1.93183
1.87956
1.99745
1.93834
1.87489
2.00811
2.04325
2.01516
1.92622
1.87006
1.91077
1.90143
1.81704
1.84154
1.87643
1.82097
1.83019
1.8466
1.80113
1.75819
1.75761
1.73421
1.68891
1.61541
1.77503
1.76967
1.75755
1.70272
1.67396
1.62939
1.61872
1.56024
1.52951
2.10168
2.18014
2.12798
2.04741
1.9726
1.9367
1.87765
1.80424
1.76466
1.79861
1.78157
1.75788
1.70732
1.66394
1.59723
1.56243
1.50297
1.75347
1.75322
1.77799
1.71814
1.72255
1.79309
2.30429
2.31756
2.30988
2.29774
2.56505
2.89254
2.79665
2.72474
2.65655
2.63394
2.62651
2.56676
2.47985
2.45986
2.39344
2.35105
2.29669
2.31121
2.25684
2.19921
2.16212
2.08912
2.03061
2.03699
2.00006
2.05506
2.15898
2.11834
2.10918
2.13352
2.1447
2.0765
2.01747
2.03408
2.04807
1.95892
1.99472
1.95224
1.9685
1.91861
1.88371
1.85273
1.84825
1.87838
1.83492
1.80957
1.86674
1.81555
1.87944
1.8259
1.8962
1.84147
1.80636
1.79091
1.76513
1.68119
1.62825
1.65052
1.66405
1.63948
1.67237
1.65863
1.6223
1.60999
1.61071
1.57994
1.52566
1.48669
1.43835
1.59561
1.64378
1.70351
1.75612
1.78711
1.93303
1.89281
1.87976
2.00692
1.92999
1.91499
1.87535
2.24854
2.46293
2.38772
2.31217
2.23273
2.15253
2.10735
2.14397
2.12012
2.08868
2.1802
2.17519
2.11767
2.06641
2.06953
2.07742
2.00546
1.97864
1.98017
1.91158
1.87147
1.78708
1.74729
1.7282
1.67047
1.70543
1.67147
1.60708
1.57158
1.52004
1.46503
1.51182
1.5774
1.53116
1.49679
1.49702
1.46937
1.53728
1.55961
1.53321
1.7387
1.81165
1.77367
1.70627
1.68796
1.80597
1.79554
1.723
1.67564
1.64453
1.60492
1.57742
1.50618
1.44931
1.48222
1.46563
1.41523
1.40342
1.35604
1.47918
1.44352
1.47898
1.4612
1.46397
1.46726
1.4546
1.4307
1.38065
1.35489
1.29597
1.29268
1.30249
1.3916
1.42291
1.44413
1.4267
1.40408
1.40807
1.37964
1.33395
1.38867
1.41662
1.39329
1.35948
1.39023
1.49022
1.5052
1.61054
1.69765
1.70424
1.65823
1.67264
1.67531
1.63064
1.61917
1.79066
1.93418
2.12388
2.17503
2.1911
2.13674
2.09197
2.10183
2.06241
1.99938
2.13871
2.08809
2.10823
2.10907
2.11985
2.047
1.99222
1.97563
2.05594
2.04766
1.98569
1.95099
1.89521
1.86984
1.89485
1.83522
1.86984
1.81485
1.75308
1.89286
2.29908
2.42272
2.50253
2.44949
2.44024
2.37665
2.43332
2.52951
2.54955
2.51601
2.53058
2.65696
2.68147
2.57922
2.57642
2.49667
2.5462
2.70218
3.09417
3.20387
3.22645
3.24313
3.13363
3.45622
3.36578
3.30537
3.20784
3.22228
3.2414
3.21559
3.19805
3.10033
3.05745
3.01692
3.13999
3.13928
3.12647
3.0303
2.94099
2.90521
2.80555
2.81087
2.86795
2.97095
2.9816
