atr
0.0
3.92571
5.19102
9.23309
10.23358
12.02833
12.83773
14.85075
15.85998
16.88999
17.45141
18.40131
19.38622
20.22078
23.21501
23.68965
23.84539
23.45929
23.77791
23.40949
23.33738
23.65757
26.00346
25.5275
26.1191
25.83131
25.21336
25.63741
25.0633
25.02735
24.3504
27.7118
26.93453
27.05778
26.01222
26.18778
26.23436
26.49762
25.86851
25.29861
24.913
24.99921
24.47427
23.68539
23.12929
24.25863
24.15873
25.4881
25.52038
25.17678
25.05273
24.29325
24.09016
27.36372
29.41917
29.46423
29.2225
28.73946
28.31236
27.69933
27.62795
26.71095
25.90517
25.03337
26.64242
26.72582
26.24397
25.32226
24.51638
26.18664
29.11045
29.73614
29.27141
31.61203
31.61188
31.17032
30.90958
30.36533
30.30209
30.38694
29.91573
29.05246
29.203
36.43136
36.40055
35.72551
35.21797
34.56026
33.61095
35.61303
35.01638
34.54093
35.56443
35.1334
34.34602
35.44773
36.98718
36.10881
35.37818
34.23188
37.67032
36.50958
35.46961
34.80821
33.87905
37.62269
36.99607
38.03564
39.54309
40.84001
40.4343
39.62971
38.95758
39.43918
38.70281
37.92047
37.35972
37.31546
37.31507
36.6647
37.74723
37.59314
36.60291
35.56413
38.06384
36.92714
35.49448
36.67059
36.05412
35.21883
34.03391
33.42506
32.82327
31.60161
32.51149
33.32996
33.26425
32.1918
31.16381
30.12497
28.8089
28.73041
29.09681
28.47418
30.62602
30.53988
29.65703
30.95081
30.76647
31.54672
31.81696
33.99289
33.58625
33.12866
32.28804
33.3239
33.30433
33.1676
32.52134
32.14124
32.23615
31.23643
30.68526
30.81774
30.56433
31.39188
31.41317
30.6808
32.42432
32.49329
33.7002
33.2909
33.48869
32.84307
32.37285
31.59051
32.35333
32.27738
31.26256
30.76452
32.01849
32.75145
34.3392
33.27712
32.9659
32.50119
31.64325
30.94016
29.71872
30.29024
29.68165
29.24653
31.14607
31.0242
30.3489
29.77398
30.41013
30.22869
30.12807
29.86321
29.57869
28.66593
29.39479
30.00945
28.99663
29.0283
28.36413
27.79027
28.99382
31.23426
30.20039
29.5375
28.91339
28.09672
27.1291
26.69274
26.94897
26.27833
26.10988
25.50631
24.89729
24.14748
23.83838
23.29849
23.8286
23.74584
23.799
23.09978
22.73551
22.67441
22.65695
22.21074
22.60211
21.79625
20.94223
20.3885
19.88789
22.05804
22.2689
21.8504
21.48609
20.81851
21.06148
20.64066
20.65418
20.03602
19.92845
19.72142
19.51703
19.48796
20.30668
19.86906
19.79912
19.48419
18.8846
18.66927
21.89504
22.22968
22.78113
24.26034
24.44388
23.55003
22.90503
22.12253
22.69878
22.30244
21.52369
20.78914
20.15135
22.18411
22.87881
23.51818
22.95903
22.60695
23.18574
23.88033
24.95817
25.16258
24.30383
25.05784
24.94871
24.19237
24.44506
26.31541
26.71645
26.44885
26.36536
26.04355
27.79401
28.14944
27.23948
29.13094
28.46945
28.37949
28.09381
28.29711
28.33374
32.53705
32.46512
31.15975
30.2912
33.02825
32.45338
32.31528
31.7899
30.36062
30.61701
29.80794
28.73808
27.58608
27.17422
26.59177
27.21022
28.43234
28.35289
27.27697
27.46147
26.7228
26.56831
25.95557
25.7016
25.77078
28.74215
27.99057
29.82695
30.65503
30.43038
29.58964
29.66467
29.57076
29.52714
29.08306
27.98498
27.44748
27.19409
27.29594
27.51266
27.11247
27.50015
26.44871
26.2338
26.2021
26.08124
25.67686
27.78709
27.11301
26.98922
26.50499
27.85535
27.82711
27.41875
27.67455
27.50351
26.98826
25.94838
25.68136
25.31269
24.35535
24.61283
24.00334
24.75096
25.50732
24.93037
24.18034
24.26246
23.43228
22.75426
22.34753
23.83342
23.66246
24.01443
24.02983
23.59913
24.35919
23.50496
23.05318
24.01081
23.97289
23.91483
23.75591
23.3762
23.38219
22.64989
22.03204
26.99047
26.92329
26.59877
26.04314
25.43363
24.26123
24.49829
23.92484
23.41163
22.6508
22.38075
21.58355
21.27544
21.21648
23.84387
24.43288
24.47911
24.18917
23.23494
22.29245
21.52941
21.88446
23.63557
23.6616
23.91791
23.7652
23.21698
22.87791
22.54948
22.66024
22.14593
22.71122
22.91542
22.52289
22.46983
22.30627
25.23439
25.17265
24.89389
24.25861
23.33585
22.77115
22.4075
22.14339
21.23172
20.95445
20.71556
20.23517
20.8098
22.18838
23.52136
25.5334
25.86102
25.20594
24.39123
23.51114
23.85321
24.71726
25.49032
25.18815
24.58471
24.58866
25.40376
27.09634
28.13089
26.92011
26.12653
25.50821
24.80548
24.55223
24.52493
24.49743
25.11833
25.55488
25.73882
25.32033
28.61816
27.74258
27.38882
26.76462
26.38358
26.81118
26.77181
26.05597
25.78554
25.148
26.07457
26.44496
28.88961
28.74606
32.46349
32.61681
31.85632
31.19444
31.36627
30.82868
31.72877
30.80386
30.27716
30.10379
30.22137
30.18128
29.79261
29.86171
30.05445
30.80056
29.98623
29.2015
31.80854
31.32221
30.8992
32.23283
32.22762
31.06494
30.3403
28.96671
28.17694
27.87645
27.84813
27.8554
27.36359
28.55119
28.15325
27.34873
27.59025
27.34023
26.7795
26.59739
26.45044
26.37469
25.41364
25.1041
24.6838
24.22353
23.69042
23.37825
24.75123
24.80186
24.23173
23.50375
23.75276
23.48328
25.01662
26.63114
26.47106
26.07599
25.0777
25.32072
25.12496
24.31746
23.81621
23.4672
23.15026
23.10024
23.48522
24.13485
23.6045
23.41918
23.76067
24.20633
25.90231
25.49357
25.09189
25.92961
26.26535
26.96926
26.48217
26.74344
28.74748
28.51409
28.48451
28.20919
28.23853
28.16007
27.36149
26.77853
26.26363
25.67123
25.64543
25.12504
24.64754
25.26343
25.32675
25.70341
25.18603
25.52917
24.75994
24.33852
23.58862
23.22301
22.72994
23.66208
28.78551
32.74583
33.04112
32.49604
32.72133
32.52552
33.89584
36.47971
36.79616
35.53429
34.79041
33.93467
33.94648
34.41173
33.9466
33.3397
34.44901
33.36408
33.26665
36.07689
42.77925
44.32431
43.964
43.03871
42.3888
45.00032
43.88601
43.35415
42.471
41.19736
40.32612
38.94068
38.17134
37.78911
36.85774
37.13219
38.44703
37.95153
39.80071
39.7078
41.38724
40.07815
40.52543
39.1429
38.17126
37.71474
39.53726
39.04031
38.62958
39.19961
39.31321
39.27369
38.197
37.1265
38.54461
38.98999
38.99285
38.03336
36.55169
37.46371
38.44559
37.62805
36.70033
35.49602
36.10559
38.55805
40.98533
40.41209
39.10052
37.57262
37.07601
36.44915
36.13064
35.20916
33.79494
32.47458
32.29783
31.42584
30.32042
29.03254
27.94521
28.44555
27.8723
28.34999
27.22642
27.41025
27.52095
27.39516
27.31122
26.52328
26.07233
25.31716
24.27951
23.25812
23.61396
26.56011
27.72367
29.78413
29.62883
29.26677
29.28843
28.61283
28.64477
28.023
30.95136
31.53126
31.49688
31.00925
29.94216
29.62986
29.13987
28.4956
27.57305
27.14712
26.22233
26.65859
29.49226
30.72139
30.84986
31.86987
31.82702
31.0658
31.0261
30.58853
30.69435
31.17903
29.99339
28.82886
29.0118
28.34167
28.05655
28.38323
27.60943
27.12589
26.89476
26.46871
26.16165
25.38297
25.31561
24.75735
26.76611
28.31139
28.35843
28.53212
31.04839
30.68137
30.3527
31.6825
31.64447
32.11915
31.30564
31.06881
30.34389
29.64861
30.428
30.36957
30.09246
29.33371
28.66488
28.5381
30.55038
30.63678
31.43272
36.08396
36.80082
36.84647
40.15673
43.54196
45.60396
