atr
0.0
27.105
48.02607
74.44707
90.20513
114.71477
129.91157
168.41574
185.54962
198.63965
202.43967
224.96184
228.91956
265.52459
292.62998
298.25927
310.71432
313.1633
311.62663
307.18259
311.00669
306.27693
324.01857
323.11725
343.73673
342.78625
336.92223
337.06064
345.45345
386.84964
386.6618
394.78882
393.59247
393.54587
398.18974
412.08904
420.93268
460.66963
454.43609
448.20494
454.36101
441.74023
439.4195
424.0431
409.0736
404.66763
395.26279
414.12831
435.48843
483.2964
490.18523
495.29914
498.43849
547.11717
544.40665
550.79118
565.36181
561.52168
556.49299
551.57492
625.30885
607.92036
617.60105
605.09098
584.04019
574.38946
548.76736
544.35541
528.60002
506.83645
483.25384
501.67214
550.60842
532.46496
524.81103
514.00596
499.28625
483.78937
469.16442
462.62839
459.5835
560.91754
569.05486
590.46308
617.68215
600.48485
592.25522
612.41056
593.32909
584.13987
562.05845
565.33713
557.85234
592.46289
590.61982
587.96412
572.35097
580.6609
554.70941
544.52445
523.53842
504.48496
524.09032
512.0103
502.73456
487.21066
480.0649
470.85098
460.19305
460.41212
482.38268
474.80392
455.55364
445.86695
428.89074
411.46997
411.61926
391.12574
415.18819
413.40403
449.68803
470.09389
451.12218
449.58202
441.42617
442.6493
434.20649
429.2696
428.19391
423.73506
416.47256
406.84666
416.06261
419.80385
422.39001
406.03786
404.94302
400.43566
398.76168
395.57156
491.91931
534.22364
523.63553
549.29013
562.05584
551.08828
621.38269
610.10535
601.88354
594.93257
581.54167
620.2237
612.56772
590.4936
586.69048
584.20688
568.80139
570.12343
608.07104
624.63597
638.22197
618.25397
626.14869
610.71735
651.38254
642.07593
628.49622
609.80292
614.94486
614.49094
631.46158
621.30504
609.02611
628.7271
650.73231
635.17643
624.88026
610.05452
623.93634
628.88232
628.24787
614.11659
631.45469
734.71007
727.15578
727.84751
746.06555
748.86015
723.57442
713.53339
723.03529
712.44635
719.56875
702.08312
678.28647
666.90815
660.30971
646.68688
636.03424
616.7518
618.92238
669.87007
706.63721
691.59098
684.77162
667.60722
722.22313
715.17291
699.08913
706.50348
686.74466
675.40647
692.68601
686.34415
673.92242
655.68582
679.46541
671.78859
653.11155
649.39358
640.27904
633.55339
630.99101
643.55594
627.51623
622.5665
624.31389
607.56933
601.26937
578.37299
564.55421
561.77319
554.84296
543.26204
540.68903
526.99767
513.58856
517.90652
528.49034
524.65174
522.22447
554.28844
584.44141
586.66631
589.07086
581.99437
561.07977
551.89907
535.12057
522.87838
578.36136
559.58697
571.83505
549.18897
548.23405
546.79733
529.16895
521.33688
508.78925
491.19216
485.67343
470.90104
470.80454
469.17993
466.78351
452.19754
451.73486
466.37951
469.13812
462.77397
467.17726
452.17245
462.79085
458.27293
453.26344
446.64676
440.64628
431.49583
425.6197
420.32686
478.0078
489.68796
481.01239
480.95008
571.15507
566.78685
553.43779
546.21866
541.63162
564.47579
556.24537
541.62999
544.20356
539.84116
539.63965
518.02253
538.80735
538.34111
526.03103
511.48953
517.51742
573.45046
579.92186
560.62101
586.79308
571.25786
574.77873
571.35882
556.03819
553.43903
540.2391
538.80631
552.498
556.10672
552.38052
537.77334
520.38167
506.9087
492.18665
476.5826
495.8267
510.48194
496.73108
491.76029
506.54099
490.15306
489.15927
480.63004
467.12789
480.7859
505.5869
537.78427
550.31468
529.72006
509.2072
493.1774
482.54615
483.04
469.39071
455.48566
465.8974
448.23473
441.09939
439.71944
434.03519
424.37911
422.48631
456.53872
447.1431
454.30645
468.83741
466.37474
497.11512
512.54404
578.35089
568.55226
559.01138
552.35843
541.90782
536.79084
530.31149
510.56781
491.43654
475.90322
466.21227
449.73925
459.38288
446.57053
440.40335
438.65168
431.35156
416.21859
428.53298
414.92348
424.47252
421.08162
451.66579
487.46609
481.57566
467.61811
470.49682
459.68562
452.04664
450.22188
463.78603
452.59346
470.0875
457.84553
450.55228
460.78569
454.14743
448.12833
444.82702
446.4708
471.77717
464.47952
477.10741
487.84902
510.07409
513.93737
516.68756
508.79416
560.44029
561.73813
566.90398
552.25512
536.5419
536.79962
519.64322
524.24299
543.81206
559.64691
562.61499
549.32749
540.36839
530.95064
518.8656
506.60591
494.36978
480.15479
505.53016
495.21515
497.94264
498.0896
493.34677
478.48271
473.26395
478.20509
478.91259
467.09955
459.79386
457.11573
463.70175
464.07877
456.54243
446.42582
446.63898
430.61691
420.0107
411.67208
412.00479
420.28873
482.17597
484.9384
498.67423
496.27321
505.72369
495.492
488.59972
480.27188
476.15817
503.86259
521.99526
513.28131
505.10122
488.16113
490.3732
486.45582
494.48327
500.32803
540.82746
554.62193
681.72036
676.43462
675.72286
734.16409
755.91451
777.63419
771.68674
805.00126
795.15974
790.11905
802.64483
788.1702
784.20161
769.80007
746.36935
782.0594
801.11015
801.02443
795.09411
826.95382
809.3364
794.68237
767.11792
751.04664
724.72688
697.74567
729.02313
719.24719
747.17382
743.80426
834.71038
871.17036
939.91319
991.52867
1006.31591
1003.12263
1001.06673
994.72768
983.38999
969.57642
933.10382
912.21854
1001.84579
994.84752
955.51484
914.11235
889.04718
882.29024
863.70522
829.02128
808.89762
784.37636
761.59376
753.97992
725.12421
745.02534
723.60496
720.8396
721.93463
687.43787
686.66588
687.47332
677.4238
686.1621
669.55552
657.30941
661.63517
673.38337
663.17884
650.15464
639.36717
632.55165
621.82725
613.96387
611.48431
596.75686
573.77423
582.76107
572.86385
558.14786
541.28016
554.98657
570.84468
568.5622
561.77133
537.85838
520.75921
502.05712
489.05304
475.54925
481.4393
488.88435
503.0619
495.68891
494.5447
501.03579
498.47895
496.07474
493.50226
512.53781
508.42654
518.14536
536.66783
538.24299
563.93992
567.51564
618.66666
627.2319
639.27319
649.45582
635.27684
638.05563
642.55023
640.88664
660.96617
651.43358
633.50547
612.24294
608.9763
611.19228
624.42783
668.84298
673.06491
700.41742
687.5176
695.15063
696.79202
718.78473
735.48296
731.59489
735.07312
734.70932
716.30151
687.93283
679.62335
669.44811
652.67038
654.0675
655.67339
659.92458
651.29854
635.20436
620.69905
613.36983
595.80627
587.81154
579.19643
602.19668
599.12906
617.03841
610.41424
605.17751
602.50554
587.42015
586.533
562.3435
554.20182
542.71026
527.6831
526.6243
617.15257
613.05024
607.99594
595.8898
581.62982
556.4034
536.10887
513.52967
507.02826
530.1541
524.15809
531.7368
531.46989
516.26204
524.90618
517.76931
503.88721
518.19884
517.51178
525.54451
514.78919
512.7121
513.3041
496.71238
493.01006
485.5072
507.4774
505.70116
512.21608
505.22564
500.11595
496.56267
519.97819
531.47332
530.2488
528.53817
542.71187
522.8646
532.42784
542.63157
528.55503
522.31181
517.14668
513.06477
496.29086
474.76866
468.6359
450.68333
459.13095
446.97874
448.1374
431.84187
416.44817
448.41616
460.05072
447.80781
445.80582
443.02898
469.32048
460.71402
454.65159
453.39076
452.73356
441.15188
432.80889
441.61254
435.16164
453.32295
445.72631
427.03872
446.34667
445.80548
435.82152
426.36284
420.4912
413.19969
436.784
425.83871
415.19809
402.50823
449.08407
442.14378
436.20494
435.33887
431.95824
442.85336
453.21598
450.64841
458.10209
462.57266
458.97604
459.00347
456.96822
471.28835
464.51918
459.27924
441.30215
436.13699
445.70292
