atr
0.0
0.13357
0.16903
0.22481
0.2509
0.25869
0.27521
0.29627
0.31368
0.32627
0.35654
0.42179
0.45666
0.46833
0.51559
0.5359
0.5812
0.5954
0.61644
0.61098
0.60662
0.61258
0.70597
0.73625
0.72009
0.70794
0.74809
0.76251
0.79233
0.76788
0.77303
0.76853
0.78935
0.77868
0.76735
0.74825
0.72838
0.75563
0.74809
0.72608
0.87708
0.90729
0.88677
0.86557
0.86446
0.85414
0.83027
0.81168
0.80942
0.84374
0.86776
0.83864
1.01588
1.02974
0.99833
0.98488
1.2331
1.22788
1.2216
1.18506
1.17041
1.20967
1.33184
1.30671
1.34265
1.40675
1.37627
1.37654
1.3525
1.37303
1.36139
1.42415
1.42028
1.38454
1.33422
1.26463
1.2393
1.20149
1.16067
1.14205
1.10476
1.07871
1.0688
1.04603
1.06346
1.03464
0.99645
0.9767
0.94408
1.00665
1.1526
1.15599
1.1277
1.10858
1.07011
1.03867
1.03948
1.04523
1.03129
1.0112
1.05468
1.03721
1.01526
0.97774
0.99648
0.97387
0.96074
0.93497
0.93319
0.91724
0.88244
0.99441
1.03195
1.05967
1.06612
1.03568
1.00528
1.13776
1.17149
1.17853
1.1572
1.23097
1.31162
1.31793
1.29022
1.27378
1.21565
1.15596
1.21982
1.21198
1.26684
1.33492
1.32742
1.52832
1.55344
1.5382
1.52975
1.51406
1.4902
1.43661
1.419
1.39264
1.44602
1.47773
1.52575
1.47391
1.44435
1.40761
1.41207
1.37835
1.32275
1.2797
1.229
1.2105
1.15833
1.15987
1.2156
1.21163
1.18437
1.22977
1.36621
1.40077
1.38
1.41786
1.44515
1.55693
1.56715
1.57735
1.82611
1.87139
1.90129
1.86834
1.78775
1.71005
1.63147
1.69351
1.64969
1.60543
1.59504
1.55254
1.5545
1.6556
1.69449
1.71346
1.87035
1.85818
1.82974
1.83262
1.88243
1.83226
1.84352
1.81756
1.77988
1.78274
1.71397
1.66155
1.60144
1.57919
1.54139
1.50272
1.46896
1.46117
1.4618
1.43882
1.38533
1.33852
1.30791
1.27663
1.4133
1.37092
1.32014
1.38299
1.42849
1.41646
1.40528
1.47705
1.43797
1.38526
1.3406
1.29198
1.2797
1.27043
1.25398
1.20083
1.1972
1.15526
1.17846
1.25571
1.29673
1.29339
1.31815
1.44971
1.55116
1.54179
1.65952
1.70527
1.65346
1.62536
1.61641
1.66952
1.66884
1.67964
1.64395
1.60295
1.57631
1.53515
1.53335
1.49811
1.45253
1.44235
1.41361
1.38193
1.34322
1.33227
1.32211
1.31767
1.52355
1.57687
1.55781
1.53725
1.56316
1.78365
1.7991
1.74845
1.75856
1.70938
1.69228
1.63926
1.58289
1.51768
1.53642
1.47524
1.43416
1.39957
1.38746
1.32407
1.29021
1.33734
1.36467
1.34291
1.37199
1.4197
1.35972
1.31403
1.25874
1.20669
1.2005
1.24903
1.32481
1.26876
1.38885
1.38179
1.3538
1.31496
1.32532
1.29708
1.283
1.24207
1.25621
1.26363
1.22265
1.20103
1.15453
1.10207
1.0912
1.0804
1.03537
1.00356
1.00402
0.99302
0.95923
0.94357
1.03975
1.18977
1.18121
1.27755
1.31701
1.31365
1.29911
1.27346
1.22892
1.31543
1.30433
1.31259
1.40312
1.52718
1.73667
1.88762
2.19636
2.57234
3.07931
3.16365
3.11982
3.24269
3.19178
3.26808
3.66465
3.69574
3.52748
3.59123
3.56114
3.48249
3.44517
3.35194
3.23823
3.26907
3.28557
3.30731
3.25322
3.26013
3.34798
3.38598
3.47198
3.39684
3.28849
3.1436
3.12906
3.11413
3.04669
3.01121
3.14755
3.38273
3.30039
3.21036
3.11605
3.04062
2.91629
2.83227
2.74925
2.67145
2.64491
2.64242
2.69939
2.63943
2.6009
2.49512
2.52904
2.53411
2.47168
2.35084
2.33792
2.42593
2.36336
2.31598
2.3727
2.32322
2.34513
2.36191
2.32963
2.47465
2.57004
2.67003
2.83289
2.77768
2.79285
2.68979
2.71123
2.62829
2.69055
2.6798
2.7591
2.70773
2.72861
3.01228
2.95355
2.91901
2.89694
2.8793
3.00435
2.94618
2.89717
2.81665
2.89904
2.87339
2.90458
2.86354
2.774
2.71728
2.61391
2.51863
2.50944
2.75019
2.93947
3.08022
3.20806
3.13391
3.0822
2.97276
2.85756
2.75702
2.65009
2.68723
2.71743
2.81261
2.76385
2.68786
2.56016
2.47943
2.45019
2.43946
2.33307
2.34499
2.28535
2.86426
2.96109
3.01744
2.93763
2.85851
2.79647
2.6603
2.56742
2.47617
2.37073
2.34211
2.42053
2.38192
2.38536
2.30783
2.20227
2.08282
2.07762
2.00208
1.9105
1.85904
1.85125
1.81687
1.7371
1.8473
1.87035
2.0089
2.06684
2.02349
2.00681
1.92775
1.84649
1.80674
1.7484
1.65566
1.69597
1.67483
1.66877
1.606
1.54557
1.51731
1.49036
1.47034
1.43531
1.41851
1.42004
1.42504
1.43753
1.42414
1.40884
1.40464
1.36359
1.34977
1.37693
1.32786
1.3373
1.43106
1.5717
1.60229
1.5807
1.54065
1.48418
1.44959
1.46391
1.4472
1.4124
1.35651
1.33891
1.42256
1.46666
1.44833
1.41416
1.39458
1.35639
1.40165
1.39225
1.3778
1.45224
1.44065
1.39704
1.36653
1.31892
1.25829
1.20984
1.17485
1.19236
1.30219
1.33632
1.29373
1.29632
1.34801
1.32172
1.36731
1.41108
1.37457
1.37639
1.34807
1.36464
1.38859
1.37584
1.41471
1.4208
1.48146
1.56135
1.55411
1.54168
1.5987
1.55736
1.55184
1.53599
1.57556
1.76017
1.74873
1.73382
1.70283
1.67263
1.65244
1.59298
1.72277
1.72828
1.99555
1.99587
1.99331
2.01093
1.99157
2.01146
1.93779
1.8958
1.96682
1.95347
1.86394
1.82937
1.83513
2.02976
2.00692
1.94714
1.89306
1.89784
1.853
1.78278
1.72116
1.7525
1.72518
1.75195
1.7011
1.65031
1.69028
1.64098
1.59805
1.59819
1.56118
1.52181
1.46668
1.40263
1.39244
1.42084
1.44292
1.42128
1.40548
1.35366
1.41268
1.36606
1.33492
1.29742
1.25975
1.36691
1.35499
1.34535
1.31425
1.3068
1.29632
1.25444
1.23912
1.26204
1.35404
1.33732
1.2918
1.32095
1.3116
1.30792
1.29806
1.34106
1.34313
1.31719
1.26382
1.33283
1.32406
1.30091
1.24799
1.31099
1.31306
1.33713
1.46305
1.49497
1.54105
1.52669
1.50692
1.55
1.56929
1.60791
1.65734
1.61039
1.59536
1.62641
1.57952
1.66098
1.7252
1.66626
1.63367
1.62126
1.61474
1.62869
1.63664
1.60331
1.55664
1.58688
1.59425
1.59252
1.57948
1.66309
1.71715
1.73021
1.71306
1.66141
1.63274
1.6304
1.66108
1.71172
1.80446
1.80771
1.80716
1.8095
1.7524
1.71937
1.65656
1.65966
1.64683
1.58491
1.63599
1.77699
1.85863
1.83587
1.81403
1.78374
1.76776
1.82292
1.76342
1.68961
1.66106
1.63384
1.64214
1.60485
1.68879
1.78601
1.81059
1.81769
1.77499
1.73607
1.67492
1.62242
1.68797
1.66668
1.6762
1.65648
1.6203
1.63171
1.63801
1.68601
1.71487
1.97595
2.0291
2.0113
2.00335
2.14811
2.13539
2.17572
2.30817
2.29401
2.26587
2.27402
2.20016
2.18372
2.1856
2.21877
2.166
2.14129
2.10477
2.12871
2.06095
2.22802
2.32959
2.34819
2.34618
2.40002
2.30502
2.22752
2.1327
2.10179
2.02666
2.00762
2.06064
2.07345
