atr
0.0
58.79786
96.73872
116.12739
142.10329
168.56091
176.50513
186.39762
206.90422
312.40392
333.50292
341.737
347.22364
356.39981
395.51411
435.6431
452.19431
445.464
436.39943
437.16304
446.64997
435.17568
422.51885
439.33679
453.88273
457.39754
460.04986
449.41201
451.76901
451.75265
442.12746
462.64193
465.69322
466.50585
455.20686
443.39137
476.56341
516.29531
516.5035
515.92325
521.61016
527.67301
691.20565
680.41025
655.55452
643.43562
642.30379
619.63066
601.2849
600.56384
584.87285
566.56193
556.40322
547.49156
533.07288
550.74553
565.74585
567.48758
552.08846
565.19857
564.97296
571.02561
581.91521
615.07769
605.96214
599.78413
603.58669
603.95193
594.21322
574.15799
560.28956
549.99174
558.56304
587.50282
567.70977
577.66264
558.58531
541.14064
535.29131
524.69193
505.73751
520.90769
508.39285
518.41265
509.97174
508.66591
518.78048
522.79616
506.32644
493.50098
495.74448
487.53487
479.48381
466.66354
457.104
445.37657
449.33325
440.64516
434.59122
419.48684
411.48421
402.47605
403.25419
428.82818
443.1976
433.94134
443.10339
450.091
458.63807
457.18892
455.15043
438.94254
439.00379
427.68352
409.42827
411.95696
405.25361
400.67764
385.20709
371.25873
387.4131
398.74145
398.26349
389.83253
375.15378
368.48994
363.69351
354.14255
344.21094
359.49301
373.6578
373.65724
381.48458
385.44925
377.41716
371.08094
368.64516
374.74264
377.90174
377.78876
396.56885
400.7525
391.06018
401.97874
499.5074
513.95401
497.6973
481.36249
468.85303
472.67781
494.78225
513.29638
525.75664
518.82759
513.86134
501.03695
496.32003
508.15288
502.35625
556.70937
565.54156
553.28002
532.10502
513.6818
524.70453
522.22492
519.63314
585.18435
594.60904
575.67411
573.36238
604.74364
589.76195
589.34967
585.12469
580.67722
569.37242
555.9051
554.83259
557.83312
552.98504
555.15468
583.21006
607.05077
605.41929
611.45434
620.26546
611.92578
617.93108
612.96743
627.16119
632.41468
631.18077
618.00572
602.28531
592.14136
579.64769
564.44714
552.2002
544.95876
541.74956
524.47888
519.43181
508.72883
523.19963
636.68537
671.22284
647.30335
631.87168
609.90371
644.3863
703.41513
807.54905
991.08912
1026.33847
1015.51715
1003.62021
987.95091
963.09085
936.90936
899.4544
860.20766
834.2214
819.80344
825.49248
808.18088
773.3251
747.34331
743.26378
727.25208
751.87551
746.54583
729.9747
705.61936
686.94369
673.40272
667.22252
645.96163
631.6508
615.78217
596.17416
647.44529
639.10062
619.52915
602.22493
584.51815
571.08399
561.32585
575.37186
625.33459
630.00354
623.43543
640.7379
654.05591
660.66763
661.19137
691.32913
692.31133
683.51767
660.88069
689.13993
679.49065
666.03989
657.43775
634.73434
632.69046
619.014
594.79871
578.59809
561.33608
541.62779
533.08866
519.53376
519.80349
508.70824
494.20408
486.32165
472.15582
531.27111
512.37603
504.34917
482.04995
502.60495
493.20388
495.11218
479.63488
467.01596
457.21482
491.69948
489.70808
477.15465
465.07146
458.85207
472.25692
474.36143
472.45633
491.8523
478.15928
466.41719
455.6881
460.49038
448.9625
453.63589
446.5469
459.98855
472.71722
481.26242
470.93011
470.11581
468.67897
479.14547
531.25937
541.94798
532.73741
515.83831
507.207
492.54865
475.04089
457.10939
443.24658
453.76682
474.09419
462.95032
453.07387
449.90002
447.12145
466.84135
498.22625
501.50866
496.99161
501.32864
513.3616
512.3372
519.47668
526.23549
524.26796
569.27739
646.91186
651.18958
703.58676
744.60199
747.17542
744.15717
736.74023
719.06236
758.44433
826.70688
813.79568
817.31384
812.08357
823.71403
801.9016
785.56362
774.04408
777.82665
785.40474
814.12083
846.65006
845.49648
833.24602
844.27702
858.59152
844.07855
870.70723
873.90885
852.76965
828.24396
825.71582
799.09255
798.58094
900.68444
873.86341
840.34674
823.05268
826.83535
801.04497
818.47033
795.31673
769.64625
756.04795
741.62167
736.32083
719.81506
719.05898
711.64691
725.03071
702.76851
712.03719
694.34739
670.22972
654.58545
635.42435
616.52904
628.20268
645.03963
657.37751
677.13626
701.90939
689.12729
771.04677
806.737
855.23007
844.07078
825.51358
829.75833
830.35344
851.51963
827.3618
827.26453
831.84135
852.42982
835.30198
811.00969
787.37543
756.01504
744.08682
791.52562
773.69951
744.22883
741.4282
724.94333
744.39737
731.3147
719.07651
703.06176
680.48878
654.16815
642.08257
627.53096
612.14374
590.56062
576.71415
580.57171
588.73087
564.53367
553.36626
531.86367
517.20341
519.05674
506.98054
494.56836
479.45562
477.35165
466.14296
459.63132
448.58622
443.69435
477.68618
480.53003
470.68074
566.45426
546.67324
524.06015
507.54085
487.34008
478.54007
479.64507
461.38971
475.65187
490.50459
483.79498
482.27962
476.99679
461.86417
464.42458
449.95926
452.38217
481.46987
492.17845
477.50927
468.42147
470.31136
498.19841
507.31638
490.64521
481.62984
478.63485
466.25379
476.80923
497.22357
518.42975
527.46976
547.21478
568.42515
564.17621
573.22434
562.15832
559.83701
544.19937
555.38013
547.44583
536.83899
570.91049
734.70188
746.07889
729.98254
722.84093
706.09515
729.5855
769.11439
762.36693
766.53072
756.91853
737.27863
746.17087
732.26724
705.72244
688.06798
657.71098
647.02591
633.81906
631.59841
638.32995
737.5921
810.67766
797.88426
766.16467
756.86219
780.84061
790.93271
784.8618
765.08596
744.01553
735.89014
716.8637
689.86415
662.63385
636.00715
611.74735
607.96683
634.91205
607.45976
595.08049
574.54903
575.09339
556.406
600.30557
582.17946
575.39378
566.32637
550.29663
572.0533
567.83521
605.38769
584.61214
564.24056
567.05552
549.52156
560.77002
541.86001
547.22716
527.87807
573.11964
580.03967
582.5954
562.07002
569.57287
549.66767
529.78712
525.01804
513.47389
510.38647
528.39958
510.40818
531.93903
527.20695
512.30431
515.68901
518.68551
502.59368
484.20914
492.34491
477.3317
468.0273
461.7732
473.09726
475.33603
463.1306
465.39913
457.78847
449.66073
444.84425
448.1418
488.66739
640.64257
658.63453
654.40349
689.54253
702.55878
701.04886
693.11037
674.50892
665.529
653.62907
636.20056
622.67338
604.97385
605.26143
604.81348
610.38108
640.49601
626.11843
609.90783
591.0137
573.94701
553.66651
534.09676
514.03985
540.56914
543.90778
549.13936
542.79655
527.74965
529.17897
529.8019
520.32105
513.31526
498.86417
491.41744
468.24405
501.25591
513.02263
509.03101
510.83308
513.79
521.91143
535.5399
526.81777
509.52221
502.88277
496.72471
478.41009
476.4508
467.01003
487.16645
484.49242
476.48296
456.24847
461.16
448.23143
446.9999
449.87491
484.13599
515.44913
516.64205
588.80976
597.23121
657.78969
672.48971
677.31902
660.7748
631.5016
615.74649
584.97817
556.83544
538.3472
533.87311
548.12003
550.95931
542.90365
521.98196
530.41182
528.1024
514.72295
513.12202
574.30759
560.86991
583.47991
580.83278
568.78615
551.92714
543.40663
536.64901
551.11408
532.98308
540.92
523.23714
557.41592
566.58692
565.80643
607.5374
617.12544
620.38005
633.87434
639.84474
646.71869
636.65307
739.38785
775.37943
798.43947
825.93308
834.965
815.42893
824.04686
803.31209
793.20694
811.98644
800.9217
783.90443
755.69697
732.97362
709.60122
689.79184
674.87814
701.67256
684.82238
661.25578
647.17608
628.43136
646.85483
679.49235
669.84432
668.68044
665.85398
668.79298
670.45848
682.61431
674.72257
662.72382
634.41569
625.50528
