atr
0.0
3.15929
4.99077
6.31214
9.89841
11.50567
13.43884
15.50821
16.88119
22.70325
24.90587
26.07903
26.94695
28.81503
29.41824
31.04694
31.55573
31.42532
31.42637
31.22448
31.77416
32.97172
33.47803
35.22817
38.68973
38.92475
38.72512
37.64404
39.07447
40.93486
39.56952
41.37741
40.90116
41.37608
40.8985
40.26361
43.35692
45.78929
47.1672
47.4824
47.92151
47.68497
55.70605
55.36061
53.77843
52.50783
51.36584
50.10899
50.10049
48.72617
47.06002
45.84216
45.24629
45.7287
45.40093
47.03444
47.79984
47.9777
47.60215
47.95271
47.14324
46.78729
47.19463
49.29858
49.78725
49.12531
49.99779
49.93937
49.51513
47.84334
46.65024
45.22451
46.8349
47.66384
46.35999
46.74356
44.41474
43.00869
42.99664
41.80545
40.50149
41.01995
40.21567
41.12884
41.45678
41.63772
41.8636
41.5912
40.7154
39.81858
39.36226
38.3921
39.77695
39.25716
38.47665
37.60975
38.59548
38.26795
37.79238
36.75221
35.65348
34.82466
34.39361
34.41835
34.27347
33.24537
36.6657
38.20243
39.19012
39.43011
39.61724
38.07673
37.33339
37.57958
37.28603
38.6106
38.63342
39.26889
38.02825
36.70552
37.41441
36.98267
36.56605
35.0999
34.18277
32.73043
31.72182
30.64527
29.46346
33.10107
33.18599
32.76485
32.58022
32.02735
31.75396
31.93582
31.66184
30.99956
30.57674
30.21268
30.65464
29.64288
30.73053
30.1112
34.03183
33.64456
33.00138
33.49342
32.33746
31.16479
32.51516
32.54193
32.46965
31.99539
31.24858
30.24654
29.68321
31.23227
31.16068
33.76349
33.85895
33.32903
32.21838
32.75921
32.92284
32.95978
32.31337
34.26884
34.03892
33.29829
32.44627
32.88796
32.01668
31.36477
31.93015
32.74514
33.12977
32.3155
31.45296
32.66918
32.63781
32.68225
34.15423
36.56322
37.42799
38.1117
38.84372
38.90489
39.32882
39.24319
40.11797
40.83097
42.10018
41.37946
40.43807
41.69392
41.5315
39.9321
40.19981
39.8634
39.06601
38.0613
38.81477
37.89943
39.00805
43.81533
46.16995
44.66352
43.73398
42.76584
45.19828
50.14483
57.2302
67.15876
71.77813
71.02255
69.68594
67.44195
65.13252
64.01091
60.86442
58.58625
56.94437
54.90692
55.82214
54.89627
53.89725
52.03459
52.3064
50.71166
52.88226
52.64567
53.49312
51.97218
51.08131
49.85193
49.52822
47.65478
46.42729
45.91606
45.81348
49.68395
48.93081
47.81932
46.46509
46.41115
45.62321
45.0237
45.242
51.04186
50.82459
51.89997
53.7214
55.39487
54.38881
53.93961
56.66892
56.99114
56.90678
55.48986
53.61273
52.85754
51.362
50.76471
50.17009
51.17794
49.61666
47.37618
46.63217
44.97202
44.32187
43.06531
42.0485
42.29432
41.53116
40.13322
39.70799
38.91742
42.10546
41.09793
40.33093
39.24586
39.56759
39.11062
38.09415
36.79028
35.90954
35.59029
37.27813
36.94397
36.75155
35.99787
35.08088
34.31438
33.52764
34.50138
34.67343
34.92747
34.65479
33.57445
34.26413
32.98241
32.94081
32.00861
34.30299
35.35421
35.92176
35.50307
34.90213
36.29984
35.61056
39.41909
41.53273
43.75968
43.11256
41.63523
40.44914
39.25206
37.9562
37.01862
39.023
38.56136
38.29626
37.02938
37.59871
39.05666
39.62476
40.93299
42.51492
41.346
41.16771
40.9093
41.12864
40.89445
40.98913
40.39062
47.75486
58.0738
58.6121
61.15909
63.47202
61.60044
61.14327
60.95589
59.33476
63.54299
70.21849
69.08074
69.23569
69.05528
69.53562
68.08093
66.72158
65.00432
66.22687
65.99281
68.81618
69.80431
67.93615
67.46714
68.05377
70.23564
68.83381
72.33282
71.87477
71.253
69.13778
69.30865
67.69089
68.23797
72.88312
71.23218
68.14345
66.16606
66.34349
65.14895
67.13617
65.72073
63.41353
62.38114
61.7232
61.5944
60.33694
61.8043
61.89614
60.95356
59.9733
60.11593
59.1805
57.38261
55.99385
54.09572
52.57174
53.58019
54.00374
54.55776
55.95292
56.50843
56.15211
59.99982
62.0134
65.94102
64.64809
62.23537
61.90641
62.5181
63.00038
62.10392
66.94578
67.01394
68.49866
67.0809
65.77726
64.88174
62.81019
60.98446
64.242
62.23686
60.15708
59.31729
57.89677
59.43629
58.72941
56.68445
56.16842
54.23353
52.06185
51.501
51.13808
49.53964
48.54967
47.60398
47.29941
46.75445
45.4077
44.9243
44.06827
43.29483
43.54377
42.38136
42.05483
40.95377
40.63136
39.96483
39.09163
38.72509
38.53044
41.42969
41.71186
40.71172
48.27231
47.20929
45.88791
44.60878
43.62672
42.73267
41.89177
40.9595
41.33025
41.9338
41.94424
41.77394
40.9158
40.38896
40.03403
38.81732
39.91394
40.80866
41.19589
40.20619
39.80575
41.49319
46.88654
47.70107
45.48885
44.49465
44.48503
43.44967
45.27184
48.76813
49.43898
51.35263
51.98815
56.39471
54.87438
55.28406
53.12163
52.25294
50.39773
50.22289
49.41626
48.9251
50.23473
60.43868
61.00949
58.67595
57.2241
56.73238
58.14792
62.78236
61.37647
61.4903
60.73813
58.89112
60.09747
58.13194
57.1318
56.16739
54.03543
52.37361
51.36121
51.83541
52.50288
58.00839
67.48422
66.55035
63.73747
63.26193
69.21179
68.75524
70.16201
68.24401
66.33229
65.53284
64.10407
62.64235
60.72861
58.28942
56.65304
57.13853
58.35721
55.90955
55.5303
53.64099
54.19521
52.31055
54.14408
53.38379
52.85209
52.81551
51.92369
55.27271
57.16252
58.84662
58.08044
57.28683
56.89635
55.63732
56.85108
55.05101
54.16736
52.87112
54.88961
52.82607
51.99635
49.88947
49.66165
48.16082
47.00004
46.12861
45.75657
44.4911
47.71674
46.94983
48.61198
47.78613
47.01355
46.71115
46.92178
46.72808
45.70536
45.49355
44.22473
43.70867
44.09448
43.92416
45.10529
44.38063
44.73487
44.76524
44.78772
44.35574
43.6739
48.26719
69.27311
69.82503
67.62467
71.36219
76.13704
76.23725
75.18816
73.53758
74.00489
72.43597
70.51269
69.74107
69.11671
68.87837
68.11777
68.23865
68.48303
66.62567
64.63098
63.63019
61.97018
61.33802
58.91817
57.17972
57.37046
56.06971
55.77473
54.96797
53.36454
52.58064
52.01203
50.89974
49.81333
48.19523
47.122
45.08686
47.73351
48.63255
48.25165
49.0601
49.56795
50.33739
52.22614
52.03285
50.77479
50.03873
49.77668
47.87692
46.91714
46.19806
47.97391
47.63649
47.44745
46.38763
46.67637
45.24306
45.53284
46.95478
50.25444
52.6977
52.40429
57.58327
58.79232
60.04358
62.28047
61.78329
59.89449
57.72345
57.15606
55.20206
52.5362
51.19933
50.9558
51.51753
51.04128
50.10547
48.19294
49.62987
52.2956
51.03448
53.29488
53.52596
51.47767
51.51498
50.61177
50.4995
49.03311
47.35646
47.92457
49.82996
49.1371
50.57802
49.16031
50.45671
51.88481
52.07589
54.47833
53.99202
54.75473
60.81225
60.83923
62.775
62.31893
67.95258
73.18739
74.81615
77.895
76.97107
75.26599
75.36842
73.64139
71.81915
76.16278
73.84258
74.62526
73.04702
71.43724
69.22315
68.62364
68.27552
68.9887
68.75022
67.34377
68.10493
67.97172
67.33374
68.43276
67.11614
66.96427
64.82039
63.88322
65.02656
67.87681
67.48275
67.47541
65.31145
64.08064
