atr
0.0
4.38214
7.55913
9.08991
10.39063
11.06201
13.17401
15.75515
16.37407
17.13807
19.33963
19.68395
20.92081
22.35075
26.66498
27.44248
28.08731
28.75393
30.2215
29.57211
29.90339
29.90957
30.4546
30.0107
33.63208
34.08336
34.41884
35.66749
35.25696
35.14146
35.0835
34.92825
40.20337
44.26099
44.9402
44.7109
45.38298
44.02991
46.95635
45.68875
44.5567
43.56265
42.75389
41.76575
41.58106
40.61812
42.74754
44.31272
45.17467
44.50076
44.46285
43.36836
41.79134
41.34124
39.93258
38.89954
39.26957
38.12603
38.52774
37.72719
38.52453
37.59492
36.51243
35.4844
35.07694
37.54359
37.3619
38.00462
37.42358
36.29761
35.3585
35.3236
36.02906
35.48127
34.19904
35.45339
35.16815
33.85042
34.77325
34.21159
36.11933
35.04224
35.75779
35.47438
35.59049
34.94332
34.66594
33.78551
33.1894
32.16588
30.96188
30.98818
32.43974
33.19047
32.58329
32.02449
32.44702
31.65295
30.34774
30.62862
30.45729
30.03962
29.03679
28.85988
29.00846
28.61285
28.04694
29.97216
31.53272
31.49466
31.53719
30.88453
30.95992
29.90564
29.55238
29.05078
28.85073
28.6071
29.10874
28.85526
29.91131
29.82907
29.89486
29.86879
30.08388
29.30646
29.58386
29.44072
40.03639
45.67664
47.12831
45.66915
46.15778
46.32294
68.50987
99.87774
104.9579
108.24233
110.76217
108.19987
107.15131
107.33336
107.7524
105.41223
104.16279
104.07116
100.30679
100.29202
97.75688
96.28781
100.16011
100.20653
104.46607
101.34992
100.51778
99.2408
96.5136
95.64691
93.89999
91.83499
92.33392
88.74578
87.46823
83.90835
82.63276
80.2697
82.25044
81.44184
79.87028
77.96026
77.41881
75.48104
72.60025
69.95666
67.5069
66.48069
67.43278
65.50116
64.58107
61.95814
66.98399
67.00656
65.06823
63.17693
62.41215
60.95771
60.90502
59.05466
58.71576
57.96106
57.04384
56.68357
56.45331
56.99736
55.09326
53.33732
51.77751
50.51197
50.0704
49.34752
51.50126
51.61332
50.71308
49.67143
49.63062
50.90057
55.79482
59.21733
56.90038
56.69964
54.22609
52.20423
54.44607
59.29492
59.61743
59.99618
59.54145
59.16921
57.95069
57.9835
57.42325
57.1773
55.35964
55.34609
54.4078
55.00224
54.86566
53.24597
53.84911
52.5356
51.02306
49.20427
49.95182
48.57312
46.41861
46.00157
45.07788
43.34304
43.64782
42.39226
42.83138
42.17129
42.31405
42.60876
41.20314
40.00863
40.3673
39.77249
45.83445
45.67485
44.48093
43.08729
43.06963
42.98251
41.54376
41.40207
40.84906
39.47484
38.60521
38.53555
44.79301
44.2228
44.74188
46.40318
46.51152
49.09284
51.99692
52.49214
51.53413
51.9117
49.998
54.16743
53.57904
51.83125
50.93831
52.98986
52.84701
62.07437
72.81906
71.34912
68.27776
65.65506
63.16256
61.9038
60.55639
59.55807
57.61893
55.69757
56.61775
55.50505
53.58112
52.18032
50.84244
48.8537
48.95343
48.04033
48.02102
47.91881
46.02532
45.04351
46.8304
45.87752
44.68055
46.52408
45.53022
43.99592
43.78407
42.21163
42.0708
42.49146
45.93636
44.79876
45.07742
44.0026
43.49813
41.84398
40.55012
38.99154
38.93429
38.78541
37.6986
36.98013
38.23155
37.48286
38.0548
38.35589
37.60618
40.5486
40.30441
40.94195
39.68539
38.90786
39.02015
37.97586
38.21401
38.35515
38.76907
38.03985
37.42486
39.16166
46.19868
45.24806
43.53534
41.95068
41.7842
40.82176
41.38234
41.37718
41.83881
45.11889
45.71826
48.01481
47.23018
49.21374
48.61419
47.24532
51.05851
52.46147
51.29351
49.9904
50.22037
51.41249
50.56374
49.2649
48.46955
47.64887
46.64252
47.78091
46.37799
46.13742
49.09832
49.64201
49.82544
49.35862
48.218
47.24529
47.19491
47.71242
48.14225
47.99923
48.44143
49.17418
49.35174
49.34662
48.68757
47.31132
46.11479
45.40588
45.48689
45.66354
45.11257
43.54239
42.30579
41.48823
40.80764
41.22853
40.76149
40.88995
39.52496
38.34603
39.46346
39.00107
37.98242
37.38796
39.82454
38.53993
38.53207
38.30764
38.35638
39.02235
38.51719
37.3231
37.30002
36.46359
35.33119
35.04325
33.69588
33.63831
32.86986
38.11701
38.08937
37.0187
36.12879
36.44031
35.57243
36.09797
36.96383
36.73927
36.60147
36.12922
39.34856
39.84366
42.98483
42.98663
47.88473
49.15082
49.64433
48.03473
47.77654
51.69107
52.081
51.3595
52.71525
57.53416
64.791
67.86093
66.57086
66.38723
66.14457
64.33282
66.7619
69.23748
71.07123
68.889
70.83264
70.75031
78.00672
81.48338
79.43743
76.30761
74.98635
73.9309
72.57012
70.82368
68.18556
66.74159
66.63219
64.21561
64.09592
63.21478
63.79873
64.53096
68.11875
68.84098
68.78377
67.77279
74.93187
86.17102
88.45167
85.9744
86.25623
89.59007
85.21221
81.74848
78.85002
76.81073
77.15782
74.99441
72.27623
69.89579
67.94395
66.96081
65.13718
64.89095
63.20374
64.62633
63.75516
63.62908
65.36129
64.44405
61.91734
60.66824
59.81194
57.74109
57.69244
56.53869
54.86736
54.81826
53.2441
51.6888
50.93246
49.928
48.75386
47.45715
48.40093
48.45229
48.4057
49.31529
48.3392
48.66068
47.51135
49.37625
49.06652
47.04891
45.8297
43.87401
43.61444
42.79698
42.10005
42.52148
41.39566
41.46668
40.70978
40.91479
40.62588
42.01689
43.94782
55.86798
58.59169
63.86443
63.42983
66.56913
67.99419
67.59532
66.2428
64.69045
62.50185
60.81672
60.11409
58.99452
56.57205
57.45762
56.55565
57.88096
56.38589
54.74404
53.12018
52.0816
50.60291
50.56984
55.49057
56.33624
54.77794
54.24737
52.20113
52.20962
53.02679
56.31059
58.05127
55.66689
53.94211
52.92053
51.94978
50.49408
49.03022
48.31163
49.04651
48.57248
47.46087
46.97867
46.95805
46.26676
45.74985
49.40772
50.21074
64.5214
65.37344
63.03462
62.44001
60.76144
60.12633
58.77088
57.82725
55.75173
53.32018
51.90016
51.22015
49.44943
53.14661
53.25257
57.85596
56.96053
56.62835
55.51132
54.09623
51.76221
52.42134
51.20196
49.76182
50.3524
48.9508
47.99146
47.52921
46.68998
49.89213
48.54626
50.74867
50.13877
48.74957
47.0646
46.66356
47.17902
47.20337
49.75742
49.86403
50.04589
49.20332
47.33523
45.94128
44.85405
44.7659
45.38191
46.49749
46.13695
45.16074
45.09497
44.7639
46.18648
48.24031
46.88386
47.77858
46.69297
47.02347
46.31894
46.77758
45.05347
45.63394
46.70651
48.33962
47.82465
46.58574
46.69748
46.32694
45.06145
44.04634
43.29232
43.21715
41.80807
42.82964
41.95681
40.45418
43.48959
42.87462
42.65643
41.78669
40.77407
41.01163
40.22009
39.69937
38.47084
42.86293
45.07057
44.48839
45.84565
44.93453
43.33706
42.05799
41.25527
42.04133
40.91623
42.58079
41.17573
43.30175
43.76448
42.87988
43.08846
42.35499
41.4725
42.57303
43.2621
44.49338
44.35599
43.23414
42.11241
42.24224
41.48565
42.07096
42.11089
41.10154
40.18643
39.03955
42.16029
41.42741
40.70117
47.88109
47.88101
48.77522
47.77842
47.94996
47.09997
47.59354
45.86543
45.76361
45.01407
44.57378
44.87208
45.6355
44.58225
44.57852
