atr
0.0
4.51643
7.77097
9.7309
11.22441
12.93338
14.36599
16.21271
22.80323
23.378
26.756
28.50986
29.90058
31.30982
31.48984
41.50199
58.48256
59.12452
64.18706
64.68441
63.82338
62.53814
62.46113
60.05676
58.27699
56.39292
54.89271
54.66895
56.26117
66.90323
70.42157
68.6286
68.6637
68.45986
70.33916
68.73208
68.39478
75.21944
73.07305
70.93641
70.94095
68.85302
66.10352
64.31541
62.93003
65.05145
68.30064
65.4563
63.98585
61.84258
59.28382
57.31212
54.51911
53.23775
53.10505
50.76898
50.85548
49.71294
48.40916
47.50994
45.88137
44.6927
42.69679
41.27559
43.22162
41.88865
40.75375
39.85205
39.38476
37.84156
37.87931
37.08436
37.3119
36.7832
36.02225
34.70995
34.75995
33.48281
36.45333
35.86452
36.36705
35.20726
34.69174
34.71376
34.63921
34.01069
33.27207
32.34907
31.74628
30.63369
32.15057
34.63124
35.97329
35.1052
35.60912
35.12204
38.75546
37.89507
37.01542
37.98361
37.09478
36.47872
38.25667
40.29262
39.48101
38.74879
37.84174
37.41161
37.9565
38.1296
39.78963
39.01466
39.4329
40.6934
40.46102
39.73595
39.04981
38.52982
37.7584
39.63995
40.68067
40.06348
39.54466
39.08432
37.86544
37.19505
36.16041
38.22752
38.49698
37.48291
38.74199
40.39399
40.11656
40.62395
40.9701
47.97223
47.28279
45.97688
53.97924
55.39644
55.36669
55.16264
53.76103
52.92381
51.37425
51.41681
49.50203
47.7826
46.29099
45.36592
44.07764
42.98424
42.17179
42.23095
41.35802
40.49102
40.07309
39.90073
40.04068
39.54706
39.18655
38.50251
38.32305
38.06712
37.15161
35.33006
34.30363
33.45194
33.41895
33.20045
32.30685
31.36636
30.26305
30.58569
30.19528
32.40562
33.83236
34.80219
37.56846
36.14714
37.6002
44.32948
57.09166
58.37082
58.11862
59.59729
59.07963
57.68537
56.63641
54.87238
53.63364
55.03624
56.80865
54.82232
53.17858
51.27011
49.37082
47.98719
47.5381
48.02967
45.79612
44.72354
51.10829
56.23198
57.12827
56.04911
55.42274
54.99826
55.49838
52.9385
51.13289
50.18126
48.17331
47.46665
46.21903
46.0291
45.73273
44.90182
68.26312
71.15718
69.24167
67.65869
71.61165
68.90153
66.2807
69.04065
73.03775
72.42363
71.20551
70.7794
68.45587
71.04188
70.70603
68.38132
65.62551
62.93583
60.57541
60.42788
58.90232
60.64215
59.907
62.60864
60.13945
59.06735
57.71325
56.41445
55.11699
53.12863
51.46659
49.85255
51.08308
51.69429
50.3547
50.04579
53.61395
54.22295
54.99131
53.79336
53.21883
56.55963
54.94323
59.813
59.83636
59.23733
57.48038
56.94964
55.74466
53.66219
52.04417
50.87316
51.92722
52.74885
51.58179
52.6438
63.14996
61.33711
60.9466
74.61827
73.11982
76.54983
74.79556
72.31016
68.94087
66.52438
64.81263
71.96816
71.74401
79.64158
82.08646
80.53457
78.16639
77.92593
75.11194
72.73894
71.00759
69.72705
68.05583
65.35613
74.00569
73.16957
73.80103
77.57096
78.65232
76.61358
75.38975
73.69048
72.43331
72.10021
70.01948
68.06309
66.04573
64.32818
65.37331
64.18593
61.92265
61.71389
61.24861
59.61371
57.96416
57.03243
55.33369
55.04057
56.09195
55.83396
55.79225
62.46709
70.80372
75.11846
73.95357
70.91403
70.31445
68.05556
66.73945
64.78806
63.01392
62.52292
60.97414
59.58099
58.39663
56.06473
54.69153
53.58785
52.76586
51.28973
52.96261
56.14099
55.00092
53.32586
58.29329
58.60377
57.56922
56.2657
60.29101
63.40594
61.4698
61.96481
64.51018
72.22731
70.20965
67.67182
65.69526
63.76345
61.00178
59.98665
77.69975
79.07619
76.76004
73.59718
71.45024
72.92093
73.73015
75.34657
73.80824
72.22908
72.30558
71.22661
69.25971
68.31759
65.88776
65.25863
63.55516
62.03693
59.94715
59.6545
59.21346
58.96893
56.69686
55.42209
53.39837
51.37063
50.81772
48.97932
48.62079
47.37145
45.5092
43.76569
42.68814
42.5697
47.40901
49.56051
48.78904
48.58983
46.23412
44.5924
44.12152
42.95641
41.17738
40.48542
40.43432
39.51901
38.8948
37.50874
36.32454
35.68351
39.07254
38.28664
39.7426
39.50384
38.26714
36.84449
35.91702
35.05795
37.10881
36.90175
36.72377
36.1085
36.27718
34.99024
34.53879
34.02245
33.7787
35.14094
39.0573
37.55106
37.66242
38.74653
38.71964
38.0068
37.81346
36.79179
35.90737
35.69899
35.83835
37.51061
39.08485
47.49379
49.03209
58.5498
59.81481
59.56161
61.28935
59.35869
60.01306
60.0257
60.50101
59.48879
59.20317
59.14794
57.73309
57.85215
56.35271
55.54181
55.9931
62.13574
61.9739
64.10148
64.6078
75.77082
79.34504
82.05611
82.18425
83.88394
84.38581
85.13039
83.69108
84.87029
82.93598
81.31484
78.56235
78.39075
79.70427
78.82611
84.65639
87.1445
89.90847
89.02429
87.96184
90.60099
88.96378
87.7328
85.84188
93.92461
98.8657
101.12101
123.63165
126.31225
130.35995
131.76781
131.01939
134.27444
136.8234
142.32245
154.2637
184.48844
183.93783
175.06442
175.33553
169.59085
166.18579
160.95038
154.34892
149.64757
147.08274
150.86255
149.56665
146.56332
148.16737
146.59255
142.43666
137.40761
138.6535
138.3211
132.76102
132.49238
130.28078
137.56573
140.79532
140.06779
140.05367
134.1984
132.4528
126.72975
122.11191
119.33034
119.82675
115.56341
114.98031
113.02814
110.87327
107.92447
103.69558
100.94304
97.96139
95.90344
105.52748
107.62694
106.34573
104.45532
101.06923
98.50285
95.14765
92.16068
89.97348
88.61324
85.28872
83.17738
80.81471
78.02437
74.98121
73.85183
71.58385
70.07571
69.80959
67.73391
65.19577
62.97964
69.90967
72.03898
73.95619
73.55289
71.87054
70.82193
69.02394
70.88794
69.70095
68.49731
68.43393
67.46722
65.66599
76.87913
80.54491
105.06384
106.34571
101.86745
100.5862
96.9029
95.29769
94.69929
91.92005
90.07862
86.04443
84.92769
85.25142
83.02918
84.16995
82.90353
79.33042
76.68253
74.25949
71.34667
71.89262
70.50815
69.984
68.36514
70.18692
69.64785
68.70586
69.65544
75.82291
74.41127
73.22904
73.12197
72.91183
76.27384
77.89714
91.51877
103.76814
108.02542
109.06646
107.52386
104.74358
100.87975
97.9562
94.73933
95.7808
92.39146
90.8685
87.99861
84.69585
83.23543
80.51004
79.97575
77.49249
76.32731
82.80536
94.64498
97.23962
98.84608
97.43636
107.90519
109.48339
112.48815
121.95328
119.41947
120.93451
122.97133
121.73838
128.75778
130.23508
127.94043
132.22897
133.55048
132.01116
129.3125
125.64089
132.57226
131.53138
130.65557
129.40303
139.5271
146.17873
154.38097
163.7109
166.46726
167.31174
171.00305
166.3364
162.28523
155.97414
152.86599
148.60485
142.9945
137.83204
137.48689
133.01426
131.57252
126.79306
121.72784
118.84942
122.49732
121.40108
119.07029
121.83813
121.83969
129.179
131.10407
139.96164
138.26866
143.82947
143.31522
143.41271
139.8168
137.50131
136.69265
136.89317
133.76938
146.71442
145.29268
144.31891
142.19185
138.33029
151.5367
151.2355
150.87725
150.81031
150.80743
149.18547
147.29079
143.10788
141.50303
139.41781
143.65154
139.79357
137.42189
132.27033
127.17602
129.28202
132.35401
127.97159
126.1129
126.85841
123.92995
127.95353
133.84613
129.01141
123.57416
125.33172
120.88946
131.18307
138.54999
166.33928
164.81504
159.17111
155.7846
151.44285
151.4955
146.66296
142.40061
137.82128
137.60262
134.48886
127.79537
123.9257
122.71886
130.73895
