atr
0.0
2.73714
4.12878
5.29458
5.87925
6.32073
7.23568
7.91385
8.42
8.98214
9.31342
9.41603
10.03203
10.79974
15.07976
16.06192
17.88964
17.83609
17.71209
19.26194
21.24323
21.46443
22.13911
23.12489
23.75954
25.05457
25.53067
25.17205
24.51119
23.78897
24.03047
23.62186
24.96887
26.02252
25.6302
24.61733
24.40181
24.00239
24.21865
24.55303
26.05996
28.09496
31.23032
31.25387
32.98145
34.74635
35.28875
35.75955
36.75244
36.81584
35.09185
34.12958
32.69103
31.62525
30.54916
29.90993
28.95994
28.6478
27.8351
27.41402
28.30302
27.62709
26.49658
26.15111
25.85103
24.82524
24.2013
23.91692
23.30643
23.12382
22.95784
22.10585
22.75043
22.02611
21.73925
22.12145
21.82563
22.04808
22.25322
22.34156
22.24645
22.70313
22.25005
21.73505
21.1954
21.75002
23.3993
23.28364
23.2648
23.58732
23.1818
22.51738
23.17543
22.6029
22.2834
22.79459
23.75069
24.37493
24.646
24.51772
23.65574
23.00747
22.37265
23.7496
24.69606
25.29491
25.79742
25.35546
25.07864
24.7666
27.20613
26.99926
27.73217
27.90059
27.39126
27.17617
26.30501
27.18894
27.09902
26.21909
27.33487
27.04452
26.47062
25.63915
25.87493
25.826
25.67557
25.45018
25.40302
26.75352
28.91398
31.39584
33.21685
33.24993
32.4478
32.67438
33.98764
34.25567
33.92312
34.81075
34.26427
33.24611
32.46067
34.13134
34.81053
33.71906
32.37341
31.23174
31.17162
30.41865
29.13874
28.39097
28.36591
28.28263
27.86958
26.84104
28.03239
27.13579
26.89538
26.23714
25.6302
24.63661
23.82829
23.61198
23.25541
22.46788
22.8516
22.23792
22.00092
21.85157
21.23432
20.52829
19.64342
18.9946
18.56213
18.70912
18.60347
18.13822
18.62835
18.36418
18.30602
18.11131
18.89193
18.53679
18.91631
18.41228
17.72426
17.48682
17.25919
16.92996
16.85568
16.70813
16.72898
18.14333
18.98953
21.42956
23.70459
25.22426
24.89753
25.47128
25.0419
23.86962
24.02179
22.96952
23.9117
23.93515
22.99549
22.74867
22.5502
22.07875
22.2267
21.98408
24.21807
24.75464
23.94145
24.64563
24.52023
24.49879
23.54887
22.81038
22.64035
22.50819
22.58617
22.00573
21.57961
21.61392
21.81578
21.43466
21.0629
21.29126
21.12831
20.69486
20.70452
20.59062
19.80486
20.27094
19.56802
19.31173
19.42661
18.96756
19.6456
19.39662
19.16829
19.16556
18.91659
18.42469
20.46721
20.7967
20.22408
22.92736
24.16255
23.89808
23.31107
22.60885
22.63465
22.5586
23.4237
22.69772
22.86217
22.03416
21.50029
20.83313
20.20719
19.75739
20.13972
20.38903
19.6041
19.1538
18.7671
18.18445
19.72985
19.87272
22.52895
22.92331
22.40593
22.29551
21.74226
21.08567
22.62526
23.43774
23.77005
25.22933
28.28438
29.13549
28.78939
28.49015
28.03371
27.6513
27.21478
26.49158
25.60432
28.0433
28.84806
29.41106
30.62741
30.06974
32.01119
33.56682
33.24133
33.40409
34.16666
34.56975
36.58906
37.22841
37.92352
39.64184
40.56743
40.81261
41.50099
43.02664
41.86188
41.2496
40.7382
39.86762
39.56136
41.38055
40.58122
39.88899
38.70192
37.38607
38.70349
37.80396
38.7151
38.27117
36.92323
36.92514
36.18834
35.20203
34.95117
34.31895
33.45402
33.40159
32.62219
31.59561
32.95878
33.49529
33.5492
35.41854
35.40222
35.01278
38.19329
39.04949
40.14024
40.2195
40.15811
41.45682
42.62276
44.00471
43.59508
48.14972
49.88403
49.64731
48.5975
46.96339
46.25172
45.42589
44.83404
43.24803
42.70532
40.84851
41.68933
40.85366
39.97554
39.25229
37.94356
36.45473
35.17939
34.32087
32.9158
34.05539
33.97215
34.27914
34.0542
34.55676
35.0077
36.52715
38.01878
38.75958
40.67461
39.37
38.12143
36.49561
36.13092
38.58157
42.4336
43.2012
43.91826
63.79196
64.88896
63.8726
62.32885
61.02179
63.66309
64.25144
63.07848
65.92287
65.57838
64.00778
62.25794
60.22309
59.03144
57.30848
56.19287
54.02553
53.02156
51.91216
50.93415
49.41171
50.66373
51.90204
52.85261
51.73456
49.13138
47.94771
46.7093
44.95507
44.45756
43.18845
43.11427
42.64254
42.05022
41.46949
45.52095
47.72303
48.72424
49.49108
48.271
47.16664
46.81617
46.43787
45.30517
45.6198
50.3641
50.34238
51.22578
50.11465
51.57789
50.98447
52.07844
50.41426
50.81896
49.10903
47.9241
47.74952
48.85527
48.82775
51.94863
50.79301
50.17637
50.26877
49.51314
48.92363
48.93266
47.22104
49.63239
49.68222
48.52992
48.49421
48.01891
47.26185
47.09814
45.96899
45.55406
44.33592
44.75906
44.70413
50.30598
48.85127
51.1876
50.6742
50.39462
49.41143
48.42704
47.94725
48.51388
47.94932
48.85579
48.80109
52.75673
52.81482
54.69019
54.58375
55.0892
55.38997
53.7664
52.89808
54.21465
54.97289
54.31125
54.94902
54.62481
54.28518
55.10481
53.82161
52.97578
56.44179
57.76524
59.27201
66.14972
70.92117
70.63251
70.07662
71.09686
76.20351
86.92255
85.89951
86.0724
87.81652
86.72819
88.86761
90.46706
88.88085
89.58507
87.41042
86.01825
84.89123
84.89257
85.10953
82.77671
80.72337
80.39242
77.19867
76.22662
75.50901
72.40479
71.03731
74.80179
71.37094
71.32231
68.82714
67.24877
64.87386
63.49787
61.40231
59.825
57.60393
58.21008
58.81936
60.27155
57.76215
56.32771
59.69216
57.73058
56.47339
55.96029
53.50742
52.89974
50.99048
51.51187
52.26388
51.56575
50.38962
48.1875
49.25268
46.40821
46.36048
47.54401
48.01944
47.46234
47.65074
45.83355
45.70115
44.1075
43.21339
43.43315
43.95007
44.17435
46.78832
48.78487
50.95381
51.61997
56.09068
55.64992
55.49492
53.61457
52.09567
51.49384
50.02142
49.45275
48.03398
49.62798
48.1267
48.15765
47.83996
47.39353
46.344
45.858
47.96457
48.02138
46.452
45.20329
44.49019
46.30018
47.87731
47.31179
47.36095
45.32588
43.41332
42.95308
41.25214
40.29699
40.23721
39.73883
38.61963
37.59537
35.99999
35.80785
35.763
35.76636
40.49733
41.39395
42.4851
44.0783
42.32414
42.2817
41.14801
40.37744
40.07619
41.64218
40.86631
40.25657
40.91182
39.99169
39.23014
39.5387
40.96308
41.04214
40.9477
40.70144
41.13919
43.55354
44.27114
45.28535
44.36425
45.44466
46.43719
45.25024
44.2238
43.3321
46.19766
47.78783
48.44441
48.19195
47.59324
46.63015
45.668
45.36386
44.14287
44.34409
43.09094
41.13945
40.0752
42.14126
40.4526
39.07384
39.31214
39.9327
39.74036
39.47105
41.17812
40.9454
41.02644
39.60812
40.27897
40.49619
40.1386
39.03513
39.22834
38.38988
37.18846
35.85143
35.11561
34.08593
33.55979
32.62623
32.62293
32.07486
31.83737
32.13042
31.45753
31.32414
32.01027
31.15382
31.99641
31.31238
30.75006
29.47077
29.75572
29.14245
28.33656
28.57752
29.06556
30.22373
31.53418
31.18817
29.91187
30.12816
29.97901
29.34194
30.00323
30.59085
29.94079
29.00717
28.76094
28.41873
28.37453
28.35778
28.7558
29.62467
29.48576
30.39535
30.41854
30.8915
31.37568
30.64956
30.40174
