atr
0.0
3.18929
4.18219
4.69918
5.64852
6.28792
8.41949
8.99667
10.1562
10.4379
10.89305
11.69997
12.32997
12.36926
12.92717
13.32452
13.31776
13.51364
13.37552
13.09441
12.72553
13.43299
14.03349
14.58753
16.20056
16.51623
16.8365
16.82818
16.94403
17.04088
17.45153
17.77285
20.01479
20.84373
20.76275
21.91756
22.37416
22.38315
22.60007
22.8922
26.8599
27.50777
27.29936
27.95654
29.10322
28.70085
28.93793
28.93093
28.37373
27.74417
27.28173
26.77089
26.58654
25.84393
26.0758
25.91324
26.74944
27.32019
27.50946
27.40164
27.6501
28.13866
27.6159
29.12762
29.57565
30.4731
30.36217
30.5963
31.09371
30.61273
29.82039
30.45108
29.60814
28.88542
30.33646
31.91885
31.93894
31.22901
31.42623
30.68078
32.6793
35.73863
34.56873
34.51096
34.72661
33.72971
35.17687
36.15995
38.43924
37.54858
36.72654
36.07536
35.74855
35.64508
35.99329
36.33234
36.02289
35.60197
34.88683
35.19205
33.77905
32.98912
32.91847
32.29857
31.86153
31.46214
31.04627
30.34511
29.59474
31.81726
32.4996
32.2482
34.1369
33.11569
34.036
34.06914
33.70706
32.47441
31.51267
31.03605
30.65348
34.46394
34.20723
33.586
32.40343
32.29961
31.65036
30.09533
30.58781
30.44439
29.76979
29.38195
29.20038
28.45321
27.94727
27.60032
28.39815
28.47614
28.04428
27.82611
27.74925
27.42002
27.14073
27.49925
27.10645
29.05098
29.7452
28.94911
30.23632
29.52373
28.35489
28.68097
27.97376
26.89563
26.5238
26.3921
26.60624
28.19579
28.07823
29.79693
32.40572
32.2146
32.29284
31.98621
31.96934
31.67081
31.19933
30.65438
31.38121
30.99041
31.4018
31.01239
31.83151
30.98283
30.7412
30.23754
29.84486
29.42808
28.94108
28.116
31.07771
32.41216
32.97915
34.27778
36.44151
35.76283
35.74977
34.61265
35.29317
34.62509
33.80901
34.72122
34.69257
34.09381
33.44068
32.93135
32.14554
31.21086
31.66222
31.46706
33.62085
35.85936
37.11583
36.44399
37.19656
36.78252
35.97234
34.53789
35.04375
33.71848
32.79573
32.56247
32.30301
30.99993
29.92494
30.00173
30.62732
30.14323
30.07514
29.87691
31.08856
30.35438
30.02264
29.08316
30.45294
30.68701
30.51151
30.08498
35.46891
35.12613
36.10855
37.01151
37.64069
37.40635
36.10733
35.4568
35.67417
34.78459
34.12141
33.42988
33.9556
33.11877
31.916
30.55272
29.45038
28.86892
28.44757
28.12846
28.04786
28.24158
28.38932
29.23223
28.80207
28.11335
27.67883
26.81391
26.38292
25.38699
27.12149
26.58639
26.01307
25.34857
25.26581
24.31611
24.0321
23.3141
23.41238
23.30435
22.81761
22.32921
21.86569
21.49743
20.54476
20.25942
19.8116
19.85506
22.08755
22.92701
23.99794
24.89095
25.81159
25.05434
24.6476
24.07706
23.77512
24.7119
24.57748
24.32194
23.97752
23.63555
22.95087
22.91724
23.19744
24.32833
24.98988
24.49275
25.09684
25.88706
27.21656
26.83252
26.22091
25.75656
25.68038
25.81535
25.8164
25.18665
24.39975
24.20905
23.59198
22.82326
23.03875
22.44241
22.44438
22.46478
22.28872
22.87953
22.41171
21.62087
21.21938
20.67799
20.23957
19.54888
19.23611
20.73138
21.18843
21.72854
21.67436
21.06476
20.56156
20.16431
20.20829
19.85341
19.08388
19.5986
19.12656
23.71181
29.53668
30.4062
31.10933
30.94152
30.54784
30.10585
30.07615
29.29071
28.4978
28.39224
28.76137
27.98627
28.13011
28.01296
27.70632
26.92015
26.42514
25.97406
25.44591
26.75263
27.50673
28.17554
28.90657
28.96539
27.82072
27.96495
27.19745
26.48764
26.7128
26.0076
25.48563
24.62737
24.15399
23.70656
25.94181
26.35882
26.47248
26.0823
26.61285
26.46122
27.31184
26.35314
26.11363
25.52909
25.28987
24.84773
24.84718
24.42452
24.18706
24.63013
24.95726
24.23674
24.78269
25.72678
25.35987
25.19416
24.88815
23.93257
24.80453
24.92421
24.64033
24.05388
24.22646
23.35314
22.46006
22.62291
22.14985
22.79272
22.94324
22.79158
22.58932
24.80294
24.74202
24.48759
24.41705
23.67297
23.28847
23.5493
23.64649
23.5196
23.83105
24.31884
24.46963
24.49323
24.00371
24.12488
23.56024
22.58951
22.89455
22.86422
23.15963
22.67538
22.22713
22.69305
22.94141
23.41845
23.83499
23.29606
23.58706
22.9737
22.112
21.09329
21.18305
21.18998
20.74927
20.10146
19.64493
19.51815
19.03828
19.49197
20.24898
20.81905
20.59983
21.1277
20.70715
20.33735
19.70111
19.29246
20.65443
20.63054
22.36907
23.99128
24.75905
25.46697
25.29148
27.02066
27.03847
26.705
25.86179
25.33881
26.00532
25.4978
27.45581
28.89611
29.0171
29.32017
28.17373
27.78417
28.12316
28.67865
38.17018
38.39302
38.62352
37.70398
36.65298
35.98134
35.33196
34.20682
33.17776
33.75006
34.54006
33.12291
33.35985
32.12772
32.04502
30.68323
30.66515
29.88835
29.5199
28.13919
28.2721
27.37767
29.14569
28.656
28.66629
27.80798
29.36241
30.71438
30.6505
32.09403
33.12374
32.47062
32.14986
31.69059
31.97983
33.53841
35.56281
35.19475
36.93941
39.1566
51.55541
53.32646
53.44599
54.06771
54.62716
53.71308
52.98357
51.9876
51.18991
50.66278
49.84044
52.04041
53.31895
53.15617
56.78787
58.59088
59.54653
59.10678
65.95701
72.73508
73.19614
77.38713
80.69591
78.7462
79.89004
81.02718
80.41167
78.77584
76.56899
76.13192
77.15821
73.92763
71.64565
69.00453
70.19064
68.56274
66.53254
63.74307
62.45071
60.45852
58.92505
57.24683
56.64849
55.7036
54.24048
52.97402
51.52016
53.30158
51.55361
53.16406
51.90877
49.77815
48.11971
47.78044
47.12041
46.95253
46.48306
46.17927
45.87289
44.7984
43.05566
42.10311
41.06932
40.55794
39.07451
39.02419
39.58175
38.79877
37.946
36.48057
36.48053
36.45192
35.9275
35.40196
34.40254
34.67735
34.50326
34.02231
33.73215
35.52128
36.13119
38.62753
40.66771
40.40858
40.62011
39.31796
39.34025
41.05238
39.83435
42.16832
41.69987
41.7606
40.63413
40.74097
39.0759
38.57334
41.04596
41.06839
39.7585
40.26218
39.00917
39.23709
39.30515
39.32978
38.80837
38.08134
39.15411
37.9031
37.52645
36.98884
36.09607
35.32564
34.87381
34.14353
33.97828
33.00126
31.72403
31.08517
31.7548
30.74803
30.69317
31.74651
31.71605
30.84562
29.35736
29.15183
28.44956
28.27816
29.77901
30.85551
30.51583
29.70113
30.61247
33.02301
33.07851
33.9529
35.22412
35.04954
34.83029
34.47241
33.82224
33.27279
33.2376
33.10777
33.65221
35.77134
37.95124
37.44616
37.23643
38.06026
37.68238
36.68793
36.11379
36.03709
36.32587
35.23759
34.28634
32.90017
32.72587
31.82831
31.15557
30.27017
30.70802
31.78745
32.02334
30.97596
30.64839
29.63708
29.483
29.48207
30.14978
30.21908
29.24129
29.2512
28.65611
29.02211
28.31696
28.07932
29.23508
