atr
0.0
0.0001
0.00017
0.0003
0.00038
0.00044
0.00057
0.00067
0.00091
0.00099
0.00111
0.00128
0.00145
0.00146
0.0016
0.00167
0.00168
0.00168
0.00167
0.00172
0.00163
0.00165
0.00156
0.00156
0.00152
0.00156
0.00153
0.00147
0.00142
0.00138
0.00142
0.00152
0.00161
0.00159
0.00164
0.00167
0.00185
0.002
0.00227
0.00227
0.00219
0.00211
0.00201
0.00193
0.00185
0.00179
0.0017
0.00164
0.0016
0.00159
0.00152
0.00147
0.00144
0.0014
0.00143
0.00167
0.00167
0.00172
0.00174
0.00174
0.00169
0.00164
0.00171
0.00166
0.00161
0.00159
0.00154
0.00148
0.00149
0.00152
0.00159
0.00158
0.00153
0.00148
0.00148
0.00148
0.00144
0.00142
0.00137
0.00133
0.00137
0.00146
0.00149
0.0015
0.00152
0.00159
0.00161
0.00161
0.00174
0.00183
0.00177
0.00177
0.00177
0.00172
0.00167
0.00162
0.00154
0.00146
0.00154
0.00157
0.00157
0.00154
0.00151
0.00156
0.00155
0.00162
0.00169
0.00168
0.00171
0.00185
0.00187
0.00201
0.00207
0.00209
0.00212
0.00207
0.00207
0.00205
0.00196
0.00195
0.0019
0.00182
0.00188
0.00192
0.0019
0.00182
0.00178
0.00173
0.00174
0.0018
0.00186
0.0019
0.00191
0.00205
0.00217
0.00239
0.00237
0.0024
0.00237
0.00231
0.00224
0.00217
0.00207
0.00201
0.00194
0.00186
0.00187
0.00183
0.00177
0.0018
0.00173
0.00166
0.00165
0.00173
0.00177
0.00189
0.00192
0.00191
0.00187
0.00189
0.00217
0.00217
0.00215
0.00206
0.002
0.002
0.00192
0.00181
0.00174
0.00169
0.00175
0.00171
0.00169
0.00161
0.00154
0.00148
0.00152
0.00161
0.00162
0.00168
0.00166
0.00175
0.00185
0.002
0.0021
0.00211
0.00219
0.00212
0.00205
0.00198
0.00195
0.00191
0.00195
0.00191
0.00185
0.00187
0.00183
0.00178
0.00172
0.00164
0.00163
0.00163
0.00181
0.00187
0.00188
0.00192
0.00192
0.0019
0.00194
0.00201
0.00199
0.00197
0.00202
0.00206
0.00208
0.00199
0.00195
0.00185
0.0018
0.00176
0.00175
0.00175
0.00168
0.00161
0.0016
0.00159
0.00167
0.00172
0.00174
0.00173
0.0017
0.00176
0.00193
0.00212
0.00218
0.00212
0.00209
0.00203
0.00195
0.00187
0.00182
0.00181
0.00175
0.00174
0.00175
0.00169
0.00164
0.0016
0.00155
0.00163
0.0017
0.00177
0.00177
0.00188
0.00188
0.00188
0.00207
0.00214
0.00229
0.00224
0.00219
0.0021
0.00204
0.00193
0.00186
0.00175
0.00167
0.00168
0.00167
0.00173
0.00167
0.0016
0.0016
0.00166
0.00171
0.00183
0.00194
0.00193
0.00199
0.00203
0.00221
0.00219
0.00224
0.00234
0.00243
0.00236
0.00231
0.0022
0.00211
0.00199
0.0019
0.00183
0.00176
0.00171
0.00164
0.00158
0.00158
0.00156
0.00156
0.00164
0.00168
0.0017
0.0017
0.00186
0.00193
0.00198
0.00196
0.00196
0.00191
0.00188
0.00183
0.00177
0.00172
0.00183
0.00183
0.00179
0.00171
0.00179
0.00187
0.0018
0.00175
0.00171
0.00173
0.00178
0.0019
0.00194
0.00186
0.00186
0.00201
0.00205
0.00209
0.00213
0.00211
0.00204
0.002
0.00193
0.00186
0.00179
0.00175
0.00166
0.00158
0.00163
0.00161
0.00157
0.0016
0.00161
0.00168
0.00171
0.0019
0.00195
0.00193
0.002
0.00199
0.00202
0.00218
0.00232
0.00232
0.00225
0.00229
0.00225
0.00232
0.00226
0.00224
0.00215
0.00208
0.002
0.00196
0.00189
0.00184
0.00177
0.00172
0.00174
0.00208
0.00216
0.00223
0.00222
0.00224
0.00235
0.00237
0.00249
0.00244
0.00238
0.00233
0.00225
0.00216
0.00208
0.00206
0.00199
0.00194
0.00189
0.00187
0.00181
0.00179
0.00175
0.0017
0.00168
0.00186
0.00198
0.00196
0.00199
0.00206
0.00213
0.00234
0.00254
0.00256
0.00249
0.00244
0.00236
0.00232
0.00225
0.00221
0.00211
0.00205
0.00214
0.00217
0.00207
0.00208
0.00205
0.00201
0.00199
0.00209
0.00215
0.00214
0.00214
0.00218
0.00217
0.00215
0.00225
0.00217
0.00212
0.00208
0.00204
0.00195
0.0019
0.00188
0.00187
0.00187
0.00182
0.00181
0.00188
0.00188
0.00193
0.00191
0.00185
0.00183
0.00184
0.00187
0.00185
0.00186
0.00194
0.00196
0.00207
0.00211
0.00224
0.00225
0.00221
0.00215
0.00206
0.00198
0.00195
0.00198
0.00191
0.00193
0.0019
0.00192
0.00194
0.00205
0.00199
0.00197
0.00194
0.00206
0.00217
0.00214
0.00214
0.00219
0.00226
0.00251
0.00259
0.00255
0.00247
0.00238
0.00231
0.00226
0.0022
0.00214
0.00207
0.00196
0.00194
0.00194
0.00184
0.00185
0.00181
0.00173
0.00173
0.00197
0.00195
0.00191
0.0019
0.00188
0.00193
0.00199
0.0021
0.00214
0.00209
0.00208
0.00234
0.00258
0.00249
0.00244
0.00234
0.00229
0.00222
0.00219
0.00213
0.00205
0.00198
0.00198
0.002
0.00212
0.00212
0.00222
0.00223
0.00222
0.00225
0.00234
0.00247
0.00247
0.00254
0.00255
0.00248
0.00237
0.00231
0.0023
0.00222
0.00223
0.00224
0.00225
0.00222
0.00217
0.00211
0.00209
0.00209
0.00209
0.00221
0.00228
0.00228
0.00226
0.00224
0.00235
0.00257
0.00272
0.0029
0.00281
0.00279
0.00272
0.00269
