atr
0.0
0.0003
0.0004
0.00039
0.00041
0.00048
0.00045
0.00068
0.00066
0.00081
0.00089
0.00097
0.00095
0.00091
0.00094
0.00094
0.0009
0.00086
0.00086
0.00079
0.00078
0.00082
0.00083
0.00084
0.00079
0.00075
0.00073
0.00068
0.00066
0.00065
0.00063
0.0006
0.0007
0.00081
0.0008
0.00076
0.00086
0.00082
0.00081
0.00085
0.00088
0.00083
0.00081
0.00094
0.00092
0.00088
0.00083
0.00081
0.00075
0.00075
0.00074
0.00069
0.00068
0.00064
0.00066
0.00077
0.00085
0.00079
0.00081
0.00082
0.00097
0.0011
0.00105
0.001
0.00105
0.00107
0.00107
0.00109
0.00104
0.00098
0.00093
0.0009
0.00097
0.00099
0.00098
0.00097
0.00094
0.00088
0.00083
0.00103
0.00112
0.0011
0.00106
0.00102
0.00106
0.00099
0.00102
0.00115
0.00119
0.00127
0.00138
0.00129
0.00122
0.00113
0.00119
0.00116
0.00112
0.00112
0.00106
0.00099
0.00095
0.00088
0.00084
0.00082
0.00098
0.00097
0.00099
0.00092
0.001
0.00096
0.00093
0.00106
0.00101
0.00103
0.00096
0.00091
0.00086
0.00084
0.00083
0.00081
0.00076
0.00075
0.00072
0.00074
0.00072
0.00069
0.0007
0.00075
0.00073
0.00069
0.00067
0.00062
0.00065
0.00069
0.0007
0.00084
0.00091
0.00097
0.00092
0.00086
0.00084
0.00085
0.00085
0.0008
0.00078
0.00079
0.00076
0.00073
0.00076
0.00076
0.00075
0.00073
0.00085
0.00087
0.00089
0.00083
0.00092
0.00151
0.00192
0.00187
0.00192
0.00182
0.00176
0.00166
0.00169
0.0016
0.0015
0.00147
0.00137
0.00133
0.00125
0.00121
0.00116
0.0011
0.00119
0.00129
0.00124
0.00134
0.00136
0.00133
0.00125
0.00138
0.00138
0.0013
0.00138
0.0013
0.00138
0.00132
0.00124
0.00135
0.00127
0.00131
0.00122
0.00117
0.00116
0.00115
0.00116
0.0011
0.0011
0.00102
0.0012
0.00121
0.00123
0.00144
0.0016
0.00154
0.00145
0.00155
0.00162
0.00169
0.00161
0.00157
0.00156
0.00148
0.0014
0.00142
0.00134
0.00127
0.0013
0.00135
0.00128
0.00121
0.00122
0.00114
0.00121
0.00126
0.00127
0.00143
0.00136
0.00132
0.00155
0.00155
0.00153
0.00145
0.00136
0.00127
0.00125
0.00119
0.00114
0.00109
0.00102
0.00096
0.0009
0.0009
0.00096
0.00096
0.00095
0.001
0.00106
0.00115
0.00123
0.00127
0.00128
0.00125
0.00126
0.0012
0.0012
0.00134
0.00134
0.00131
0.00121
0.00116
0.0011
0.00103
0.00096
0.00092
0.00108
0.00102
0.00099
0.00094
0.00091
0.00089
0.00089
0.00095
0.00117
0.00124
0.00126
0.00124
0.00125
0.00141
0.00133
0.00131
0.0013
0.0014
0.00147
0.00142
0.00133
0.00128
0.00119
0.00111
0.00114
0.00115
0.00108
0.00108
0.00112
0.00121
0.00113
0.00118
0.00122
0.00119
0.00125
0.00116
0.00139
0.00194
0.00194
0.00186
0.00184
0.00183
0.00179
0.00179
0.00172
0.00164
0.00154
0.00157
0.00153
0.00142
0.00145
0.00137
0.00134
0.00131
0.00139
0.00144
0.00143
0.00144
0.0014
0.00137
0.00131
0.00139
0.0013
0.00127
0.00118
0.00113
0.00109
0.00105
0.00098
0.0011
0.00107
0.00104
0.00112
0.00108
0.00108
0.00105
0.001
0.00094
0.00099
0.00095
0.0009
0.00102
0.00105
0.00103
0.00098
0.00094
0.0009
0.00093
0.00094
0.00096
0.00094
0.00106
0.001
0.00099
0.00094
0.00093
0.00089
0.00085
0.00084
0.00084
0.00079
0.00074
0.00074
0.00077
0.0013
0.00122
0.00171
0.00159
0.00154
0.00153
0.00157
0.00161
0.00159
0.00158
0.00156
0.0015
0.00141
0.00134
0.00126
0.00125
0.0012
0.00119
0.00117
0.00113
0.00105
0.00105
0.00098
0.00096
0.00094
0.00116
0.00109
0.00116
0.00125
0.00128
0.00136
0.00136
0.00142
0.00132
0.00123
0.0012
0.00116
0.00112
0.00106
0.001
0.00106
0.00104
0.00102
0.00098
0.00094
0.00094
0.00093
0.00112
0.0012
0.0012
0.0014
0.00134
0.0015
0.00147
0.00148
0.00156
0.00157
0.00161
0.00152
0.00149
0.00142
0.00141
0.00132
0.0013
0.00122
0.00118
0.00116
0.0011
0.00111
0.00106
0.00115
0.00128
0.00121
0.00113
0.00105
0.00123
0.00122
0.00113
0.00107
0.00102
0.00106
0.0011
0.00115
0.00119
0.00113
0.00132
0.00125
0.00116
0.00116
0.00113
0.00109
0.00111
0.00108
0.00104
0.00098
0.00098
0.001
0.00108
0.00133
0.00148
0.00184
0.00191
0.0018
0.00182
0.00182
0.00187
0.00174
0.00162
0.00154
0.00148
0.00138
0.00136
0.00132
0.00148
0.0014
0.0013
0.00123
0.00127
0.0012
0.00114
0.00111
0.00122
0.00114
0.00111
0.00108
0.0011
0.00107
0.00107
0.00132
0.00138
0.00138
0.00134
0.00129
0.00125
0.00126
0.00121
0.00117
0.00111
0.00105
0.00111
0.00108
0.00101
0.00097
0.00094
0.00093
0.00095
0.00104
0.00108
0.00119
0.0012
0.00133
0.00137
0.00185
0.00182
0.00172
0.0016
0.0016
0.00163
0.00167
0.0016
0.00155
0.00144
0.00139
