atr
0.0
0.13929
0.25934
0.33296
0.36917
0.34459
0.38248
0.38587
0.44938
0.48692
0.72572
0.67816
0.6683
0.63485
0.59093
0.58622
1.41435
1.37082
1.32719
1.26203
1.18868
1.20591
1.13442
1.06517
1.37623
1.34186
1.47601
1.38915
1.30493
1.30851
1.25968
1.17828
1.23304
1.1664
1.09273
1.36432
1.36365
1.61661
1.5347
1.53651
1.56748
1.52516
1.46086
1.45794
1.36952
1.27169
1.46407
1.38985
1.35201
1.32615
1.315
1.30321
1.21869
1.21843
1.18426
1.1011
1.02245
1.04727
0.9789
1.06255
1.27308
1.23107
1.19064
1.13595
1.12124
1.05222
1.05421
1.02891
1.00756
1.25487
1.18381
1.11854
1.26329
1.44984
1.60628
1.6294
1.65123
1.66186
1.90994
1.82066
1.75489
1.64562
1.90414
1.77456
2.18816
2.20008
2.12829
2.07663
1.99972
1.86046
1.72757
1.73453
1.61206
1.77763
1.80887
1.84502
1.74002
1.7818
1.80846
1.70464
1.74145
1.78635
1.77697
1.65897
1.56083
1.73434
1.92689
2.13675
2.00163
1.94366
1.96518
1.89695
1.7711
2.01316
1.88722
1.83171
1.71801
1.59566
1.53561
1.42592
1.328
1.23314
1.6747
1.61544
1.51362
1.44765
1.4046
1.35963
1.32394
1.27795
1.20667
1.21905
1.19947
1.42237
1.42898
1.3712
1.2779
1.54983
1.63592
1.553
1.45957
1.48388
1.62682
1.70455
1.59637
1.68984
1.61842
1.55675
1.5077
1.45536
1.35891
1.32113
1.31248
1.47623
1.39542
1.40718
1.31738
1.40721
1.42598
1.37413
2.19705
2.23904
2.24233
2.15252
2.07627
2.07189
1.98818
1.85403
1.80802
1.77602
1.91345
1.92535
1.80782
1.76976
1.66657
1.57038
1.88214
1.79627
1.6919
1.65962
1.68822
1.63192
1.59392
1.52721
2.37813
2.31576
2.28035
2.12175
1.97341
1.9221
1.98659
1.84791
