atr
0.0
0.18857
0.36367
0.46305
0.56641
0.68238
0.79364
0.92338
0.99956
1.20138
1.41521
1.45841
1.5546
1.64427
1.68932
1.7508
2.49574
2.55283
2.47513
2.51869
2.45771
2.43645
2.34027
2.24347
2.47036
2.43426
2.57682
2.60704
2.51726
2.45067
2.35562
2.257
2.26472
2.14724
2.03493
2.23922
2.18142
2.48668
2.68192
2.61606
2.57242
2.53689
2.55425
2.52466
2.40504
2.25504
2.37718
2.30774
2.35112
2.38854
2.35328
2.29162
2.24043
2.17326
2.11767
1.98641
1.84666
1.81262
1.87529
1.94384
2.12963
2.1768
2.1381
2.05502
1.99502
1.98431
1.9415
1.88246
1.8055
1.99582
1.95612
2.04033
2.12745
2.30513
2.41619
2.46468
2.43256
2.4813
2.67657
2.53503
2.4311
2.2828
2.49582
2.41933
2.87974
2.9519
3.12319
3.05511
2.98653
3.11927
3.19361
3.09585
2.87686
2.95209
3.03587
3.09652
3.26677
3.40414
3.39063
3.56737
3.48042
3.42824
3.31587
3.25474
3.3819
3.42533
3.54674
3.64519
3.6841
3.56809
3.50644
3.40206
3.16869
3.31093
3.34479
3.24695
3.0986
2.9962
2.89575
2.76213
2.56876
2.92814
3.25684
3.13992
3.05957
2.95425
2.89716
2.81843
2.67854
2.88615
3.29678
3.6238
3.5246
3.58927
3.57075
3.57962
3.32858
3.45404
3.50375
3.37384
3.20571
3.12244
3.16905
3.20912
3.23811
3.22146
3.11921
3.10034
3.07317
3.00295
3.00238
2.84721
2.8792
2.94461
2.83499
2.76428
2.66933
2.68581
2.63325
2.49516
3.23801
3.31744
3.24833
3.20238
3.08757
3.0331
2.98502
2.78895
3.01974
3.19797
3.25097
3.19412
3.07275
3.03434
2.94796
2.76025
2.98702
2.91544
2.91327
2.79375
2.74277
2.68436
2.6019
2.46319
3.24725
3.69781
3.65475
3.64655
4.12501
4.15501
4.18537
3.88963
