atr
0.0
4e-05
0.0001
0.00019
0.00025
0.00036
0.00042
0.00044
0.0006
0.00078
0.001
0.00098
0.00098
0.00095
0.00092
0.00089
0.00085
0.00081
0.0008
0.00079
0.00077
0.00075
0.00074
0.00073
0.00072
0.0008
0.00082
0.00085
0.00088
0.00089
0.00093
0.00095
0.00102
0.00105
0.0011
0.00106
0.00104
0.00102
0.001
0.001
0.00099
0.00095
0.00093
0.00093
0.00092
0.00091
0.00088
0.00085
0.00083
0.0008
0.00078
0.00076
0.00076
0.00082
0.0009
0.0009
0.0009
0.0009
0.00093
0.00099
0.00097
0.00096
0.00098
0.00096
0.00092
0.00089
0.00087
0.00084
0.00081
0.0008
0.00079
0.00075
0.00072
0.00069
0.00071
0.00072
0.00076
0.00081
0.00082
0.00091
0.00094
0.00096
0.00106
0.0011
0.00114
0.00114
0.00113
0.00111
0.00105
0.00102
0.00102
0.00102
0.001
0.00104
0.00103
0.00101
0.00098
0.00099
0.00095
0.00092
0.00094
0.00103
0.0011
0.00111
0.00112
0.00116
0.00115
0.00114
0.00117
0.00117
0.00117
0.00115
0.00111
0.00106
0.00106
0.00106
0.00103
0.001
0.00099
0.00095
0.00091
0.00087
0.00083
0.00083
0.00084
0.00087
0.00095
0.00099
0.00099
0.00101
0.00102
0.00103
0.00108
0.0011
0.00107
0.00103
0.00099
0.00095
0.00091
0.00088
0.00084
0.0008
0.00078
0.00076
0.00072
0.0007
0.00067
0.00065
0.00065
0.00072
0.00073
0.00074
0.00076
0.00076
0.00088
0.00094
0.00101
0.00101
0.00102
0.00098
0.00095
0.0009
0.00087
0.00083
0.00078
0.00077
0.00077
0.00074
0.00071
0.00069
0.00068
0.00067
0.00064
0.00063
0.00062
0.00064
0.00066
0.00077
0.00076
0.00076
0.00076
0.00078
0.00079
0.00086
0.0009
0.00088
0.00086
0.00083
0.00079
0.00077
0.00077
0.00074
0.00074
0.00076
0.00073
0.0007
0.00067
0.00064
0.00066
0.00067
0.0007
0.00068
0.00069
0.0007
0.00072
0.00078
0.00087
0.00087
0.00088
0.00086
0.00083
0.00081
0.00077
0.00075
0.00073
0.00069
0.00066
0.00065
0.00063
0.00061
0.00059
0.00057
0.00056
0.00059
0.00064
0.00065
0.0007
0.00077
0.00081
0.00082
0.00087
0.00089
0.0009
0.00087
0.00088
0.00085
0.00082
0.0008
0.00078
0.00074
0.00073
0.0007
0.00067
0.00065
0.00062
0.0006
0.0006
0.00061
0.0007
0.00071
0.00074
0.00072
0.00078
0.00087
0.00094
0.00099
0.00102
0.001
0.00096
0.00091
0.00087
0.00084
0.00081
0.00077
0.00075
0.00073
0.00072
0.00072
0.00069
0.00068
0.00067
0.00067
0.00066
0.00071
0.00075
0.00076
0.00077
0.00082
0.00083
0.00089
0.00088
0.00087
0.00084
0.00081
0.00076
0.00074
0.00071
0.00067
0.00063
0.00062
0.00061
0.00061
0.00061
0.00058
0.00057
0.00054
0.00053
0.00052
0.00055
0.00057
0.00059
0.00061
0.00059
0.00058
0.00058
0.00057
0.00059
0.00059
0.00057
0.00059
0.00058
0.00059
0.00057
0.00056
0.00054
0.00055
0.00054
0.00053
0.00053
0.00053
0.00052
0.00051
0.00051
0.00054
0.00056
0.00067
0.00068
0.0007
0.00072
0.00076
0.00081
0.00081
0.00079
0.00078
0.00075
0.00075
0.00075
0.00072
0.00069
0.00067
0.00067
0.00066
0.00064
0.00061
0.00059
0.00059
0.00063
0.00066
0.00072
0.00073
0.00075
0.00075
0.00076
0.00089
0.00089
0.00094
0.00092
0.00087
0.00086
0.00083
0.0008
0.00076
0.00074
0.00083
0.0008
0.00077
0.00077
0.00075
0.00071
0.00069
0.0007
0.0007
0.00071
0.00073
0.00073
0.00074
0.00089
0.00104
0.00119
0.00118
0.00118
0.00113
0.00111
0.00105
0.00102
0.00099
0.00094
0.00091
0.00087
0.00082
0.00079
0.00075
0.00072
0.00071
0.00073
0.00081
0.00088
0.00088
0.00088
0.0009
0.00092
0.00093
0.00096
0.00095
0.00092
0.00088
0.00086
0.00083
0.00082
0.00081
0.00078
0.00079
0.0008
0.00082
0.00083
0.0008
0.00079
0.00075
0.00071
0.00069
0.00068
0.0007
0.00074
0.00078
0.0008
0.00079
0.00078
0.00079
0.00085
0.00088
0.00091
0.0009
0.00086
0.00082
0.00079
0.00076
0.00073
0.0007
0.00067
0.00066
0.00064
0.00062
0.00059
0.00056
0.00056
0.00055
0.00059
0.00061
0.00062
0.00066
0.00068
0.00068
0.00068
0.00069
0.00072
0.00073
0.00072
0.00071
0.00069
0.00067
0.00066
0.00063
0.00064
0.00064
0.00061
0.0006
0.00057
0.00056
0.00053
0.00058
0.0006
0.00063
0.00063
0.00062
0.00063
0.00064
0.00067
0.00073
0.00074
0.00074
0.00072
0.00083
0.00089
0.0009
0.00087
0.00087
0.00084
0.00082
0.00077
0.00075
0.00071
0.00069
0.00067
0.00068
0.0007
0.0007
0.00071
0.00073
0.00073
0.00078
0.00083
0.00086
0.00087
0.00087
0.00087
0.00088
0.00088
0.00085
0.00082
0.0008
0.00078
0.00077
0.00077
0.00073
0.00069
0.00067
0.00067
0.0007
0.00071
0.00076
0.00078
0.00081
0.00086
0.00087
0.00094
0.00107
0.00111
0.00107
0.00104
0.00104
0.00101
0.00099
