atr
0.0
1e-05
5e-05
7e-05
0.0001
0.0001
0.00014
0.00014
0.00014
0.00021
0.00022
0.00022
0.00022
0.00025
0.00025
0.00024
0.0003
0.00031
0.00035
0.00033
0.00032
0.00033
0.00032
0.00034
0.00036
0.00034
0.00039
0.00039
0.00037
0.00035
0.00033
0.00034
0.00039
0.00046
0.00055
0.00056
0.00052
0.00079
0.00101
0.00095
0.00096
0.00095
0.00114
0.00109
0.00112
0.00106
0.00104
0.00105
0.00099
0.00092
0.00086
0.00087
0.00083
0.00079
0.00073
0.00069
0.00069
0.00065
0.0006
0.00058
0.00069
0.00075
0.00086
0.0008
0.00086
0.0008
0.00081
0.00078
0.00095
0.00102
0.00103
0.00098
0.00091
0.00088
0.00089
0.00086
0.00081
0.00076
0.00073
0.00069
0.00068
0.00065
0.00064
0.0006
0.00066
0.00069
0.00073
0.00072
0.00072
0.00077
0.00076
0.00074
0.00071
0.00076
0.00075
0.00071
0.00068
0.0007
0.0007
0.00068
0.00065
0.00064
0.00062
0.00063
0.0006
0.00057
0.00057
0.00057
0.00054
0.00053
0.00056
0.00063
0.00064
0.00071
0.00069
0.00082
0.00082
0.00077
0.00072
0.00068
0.00065
0.00065
0.00063
0.00067
0.00066
0.00063
0.00058
0.00055
0.00056
0.00055
0.00056
0.00054
0.00057
0.00055
0.00051
0.00048
0.00061
0.00073
0.00082
0.00086
0.00089
0.00093
0.00097
0.00093
0.00087
0.00082
0.00081
0.00078
0.00073
0.00072
0.00068
0.00065
0.00061
0.00063
0.00062
0.00059
0.00055
0.00054
0.00052
0.00049
0.0005
0.00075
0.00071
0.00069
0.00069
0.0007
0.00087
0.00083
0.0008
0.00081
0.00082
0.00084
0.00078
0.00072
0.00073
0.00069
0.00066
0.0007
0.00067
0.00063
0.0006
0.00061
0.00057
0.00064
0.00066
0.00074
0.00075
0.00075
0.00072
0.00071
0.0007
0.00077
0.00075
0.00071
0.00068
0.00066
0.00063
0.0006
0.00062
0.00058
0.00059
0.0006
0.00058
0.00054
0.00052
0.00049
0.00047
0.00063
0.00063
0.00068
0.00075
0.0007
0.00109
0.0011
0.0012
0.0013
0.00126
0.00123
0.00118
0.00112
0.00104
0.00097
0.00095
0.00093
0.00089
0.00085
0.00081
0.00075
0.00072
0.00069
0.00072
0.00077
0.00076
0.00072
0.00071
0.00074
0.00073
0.0007
0.00072
0.00069
0.00081
0.00078
0.00078
0.00074
0.00081
0.00078
0.00073
0.00072
0.00069
0.0007
0.00072
0.00067
0.00066
0.00064
0.0006
0.00057
0.00059
0.00055
0.00054
0.00056
0.00059
0.00058
0.00055
0.00053
0.00053
0.0005
0.00052
0.00054
0.00053
0.00052
0.00049
0.00047
0.00046
0.00046
0.00044
0.00041
0.00041
0.0004
0.00042
0.0004
0.00041
0.00043
0.00051
0.00048
0.00063
0.00089
0.00097
0.00092
0.00088
0.00086
0.00091
0.00086
0.0008
0.00074
0.00072
0.00069
0.00065
0.00064
0.00063
0.0006
0.00058
0.00054
0.00052
0.0005
0.00047
0.00044
0.00053
0.00058
0.00075
0.00071
0.00072
0.00075
0.0007
0.00066
0.00063
0.00061
0.00058
0.00056
0.00055
0.00058
0.00058
0.00056
0.00057
0.00054
0.00051
0.0005
0.00049
0.00049
0.00047
0.00044
0.00043
0.00043
0.00057
0.00057
0.00057
0.00056
0.00064
0.00072
0.00077
0.00077
0.0008
0.00077
0.00078
0.00074
0.00071
0.0007
0.0007
0.00069
0.00071
0.00068
0.00067
0.00063
0.00062
0.00059
0.00061
0.00077
0.00083
0.00082
0.00106
0.00098
0.001
0.00109
0.00125
0.00123
0.00122
0.00118
0.00111
0.00104
0.00097
0.00091
0.00091
0.00093
0.00091
0.0009
0.00084
0.0008
0.00077
0.00071
0.0007
0.00068
0.00068
0.00072
0.00068
0.00064
0.00067
0.00071
0.00078
0.00072
0.00088
0.00091
0.00091
0.00095
0.00089
0.00083
0.00091
0.00089
0.00084
0.0008
0.00075
0.00083
0.00079
0.00074
0.00071
0.00067
0.0007
0.00078
0.00091
0.00098
0.00091
0.00085
0.00083
0.00094
0.00101
0.00118
0.00111
0.00111
0.00105
0.00103
0.001
0.001
0.00096
0.00092
0.00085
0.00085
0.0008
0.00075
0.00071
0.00074
0.00069
0.00071
0.00071
0.00069
0.00064
0.00067
0.00065
0.00071
0.00077
0.00078
0.00082
0.00078
0.00077
0.00081
0.00078
0.00073
0.00076
0.00074
0.00079
0.00076
0.00082
0.00077
0.00077
0.00075
0.00076
0.00074
0.00086
0.00083
0.00077
0.00077
0.00093
0.00104
0.00097
0.00104
0.00103
0.00104
0.00104
0.001
0.00094
0.0009
0.00089
0.00086
0.00087
0.00081
0.00077
0.00072
0.00076
0.00075
0.00076
0.00071
0.00079
0.00103
0.00097
0.00097
0.00096
0.00091
0.00085
0.00088
0.00094
0.00092
0.00086
0.00117
0.00138
0.00133
