atr
0.0
4.37643
5.75097
7.7459
8.83548
10.59723
11.35243
12.19725
13.07245
14.76513
15.34548
16.52937
16.86013
19.57941
22.54588
23.90189
26.77675
26.9877
27.42715
27.56307
29.06928
28.66076
29.9707
32.78351
35.41826
35.58981
35.93268
35.30392
33.92435
33.73761
32.53421
31.94106
31.44669
30.96264
30.96674
31.3084
30.77566
31.76026
31.20024
31.47093
31.17658
34.79825
35.49838
34.8535
36.10896
36.57403
37.27303
37.05139
38.93486
39.48523
38.89414
39.10956
39.23173
37.69947
36.95307
37.64786
38.43015
37.38371
36.99059
38.17198
39.40683
40.3642
46.58748
47.42123
50.10542
52.51432
52.04044
51.24184
50.55742
48.96261
49.29385
48.25572
48.68102
47.38595
45.51124
43.95329
43.00306
41.67927
39.82075
38.72498
38.75463
41.00644
41.46884
40.2682
39.35048
38.5233
39.72949
39.23238
38.56293
37.29986
36.46844
37.07213
37.4734
36.66459
36.88855
35.52794
35.55451
36.72205
35.72976
35.21192
34.94892
35.32614
33.87713
35.0152
39.9934
40.08387
40.07645
40.52813
43.85969
53.98257
53.91025
53.33737
53.16613
52.20069
50.7835
49.12396
49.00154
48.62429
47.18112
46.44533
46.83566
49.20454
49.02636
47.85019
47.33661
46.19971
45.28973
49.88475
49.08512
49.64619
48.52717
47.47952
47.75098
50.71377
55.33421
54.88177
54.59164
53.12795
51.79096
49.7566
48.45899
47.70477
47.86372
47.76988
47.1156
45.69378
46.29422
44.68606
42.67349
42.24467
40.87719
40.8631
44.87288
46.06553
44.67371
44.04416
43.81743
43.41905
45.10911
45.89203
45.58546
44.57864
42.9966
42.02184
45.97385
44.91072
43.77567
42.70169
43.00228
42.58284
41.81192
40.65392
39.14079
37.57287
37.64267
36.51033
36.83603
35.87131
35.54264
35.0746
33.62356
33.52259
32.5124
31.99509
32.1733
31.47163
30.88437
30.22549
29.99581
29.64254
28.71307
28.24857
27.89938
32.398
33.38671
32.64552
35.80584
35.18542
35.70146
35.32707
34.47014
34.54727
33.91175
33.2252
33.69697
34.15433
34.23473
33.9894
33.83944
34.53734
33.83253
32.29949
34.50453
37.67635
37.72875
39.70812
42.2704
42.04394
41.01223
42.3435
41.64468
40.6122
39.15919
41.30068
41.68848
43.01431
42.47471
42.34295
41.72274
41.4804
40.89251
39.59233
38.89074
38.74569
37.87814
39.47898
40.39977
41.7255
40.84225
41.33423
43.25965
43.1961
43.40924
43.44429
42.55684
44.19349
44.32825
42.80837
42.32849
45.00931
45.43007
43.6865
44.65818
48.49188
50.89317
50.92294
50.21845
49.5307
47.50708
47.183
49.06065
47.16417
45.97245
44.57584
44.92828
44.21412
42.86454
41.35779
40.06723
42.501
41.82593
42.13408
41.99736
41.94612
41.13139
40.34487
39.6838
39.62353
43.34899
42.75049
42.11474
41.49369
40.40129
39.08476
41.078
39.59814
39.39613
38.90283
39.54977
40.33336
39.40384
38.08785
37.03729
36.49605
36.41848
35.04359
34.09547
33.56937
33.0287
38.49451
38.52776
40.26006
40.10077
41.63929
42.64791
41.84663
42.38901
42.8448
42.32874
40.87454
39.99208
39.51693
39.83643
39.81097
44.31662
42.97543
41.9929
41.96341
41.65959
40.39962
41.73179
41.53309
40.67573
38.83603
38.39775
40.53648
39.98173
39.22446
41.85986
40.79201
40.36758
40.83347
43.25751
44.72197
43.35469
42.71864
42.09588
41.36832
40.62558
39.17447
38.74486
38.42023
36.9545
35.70561
39.90235
39.64789
38.44662
38.64329
42.66448
42.03987
41.08274
40.68969
39.81114
41.5482
40.49404
39.88447
39.94986
39.17273
38.33611
38.16996
38.1871
37.60017
36.38087
36.79652
36.87963
36.42537
35.96713
36.82662
36.119
35.60193
34.93465
35.21646
34.826
34.432
33.47257
37.75882
37.4989
36.50326
34.98446
36.52057
42.93767
45.44141
46.98702
47.05652
47.25391
46.31792
44.72164
44.34581
42.96111
41.65531
40.76993
40.89351
41.42755
44.07772
44.29574
47.7339
48.15148
53.94495
54.08816
54.30901
55.34479
53.24017
51.33373
51.67632
50.57587
49.62759
48.59633
46.66874
46.40097
47.23162
45.5115
47.04211
45.8241
44.08452
44.66706
44.54727
44.12175
43.60162
42.11508
41.73829
40.88627
43.41368
45.81698
45.42934
44.44653
42.68749
41.06267
40.48463
39.31572
38.03817
40.23187
39.18674
39.7134
39.36887
38.1511
36.97959
35.82748
35.66551
34.83798
34.11169
33.488
33.061
32.10593
31.25551
35.51011
38.11082
41.81719
44.61596
45.64696
44.49361
45.49192
45.31036
45.45319
44.99867
44.89877
44.87671
46.81409
48.66523
50.19485
50.14737
49.87612
48.55069
49.7385
48.47146
48.15207
52.20335
52.30025
63.77809
65.54537
65.69427
72.04183
75.5217
76.02515
75.95264
75.0803
73.861
71.79807
70.33392
68.85578
67.3518
67.73024
66.21237
63.72006
62.90077
60.425
58.74178
57.98808
56.37751
54.03768
53.07285
52.18479
50.72802
49.51816
52.03972
54.72974
56.45476
59.48442
58.36553
58.50371
57.51344
55.34391
55.43292
53.982
51.56471
51.90437
49.84835
48.40775
46.45005
45.48219
44.98346
43.9975
42.8384
41.05494
42.31959
43.02319
47.7301
46.16081
44.84147
43.37279
45.50688
46.75639
45.53093
43.89943
43.15876
41.53171
40.7473
41.09106
42.42956
43.0603
42.13314
41.2622
39.61633
39.36231
38.40071
38.82638
38.20449
37.53917
39.43494
38.35173
40.55232
42.1243
42.48685
42.53279
43.36902
44.7648
43.32589
44.6819
45.4239
44.28434
43.71689
42.96925
41.83073
43.47211
42.52839
41.34065
39.63203
38.42117
38.04323
36.78014
38.76085
38.98293
37.96843
38.15497
37.84676
36.74485
37.8345
37.70061
40.67557
40.44803
41.67174
41.75733
41.28466
40.66719
39.78882
40.10747
38.58837
39.64634
38.45446
37.86414
36.58313
36.84934
35.59081
35.32647
34.56172
34.66445
33.28271
33.2568
32.7806
33.33056
32.50909
34.05201
36.26187
37.98031
39.43671
38.43838
37.44563
41.28023
44.79164
50.43653
49.79463
49.45359
48.02619
47.7786
48.14299
51.97992
51.41992
51.3135
55.71611
66.38424
65.94965
66.29968
65.91399
65.8437
64.02201
64.80472
63.82867
63.51091
61.0437
59.99629
60.46584
60.72114
59.05035
57.78175
58.95734
58.78181
62.1774
59.89259
58.9624
57.18366
55.33554
55.38657
53.82253
59.47664
59.10973
57.4969
56.68855
56.48794
55.80951
54.22597
54.02055
53.32479
53.17445
57.15699
61.61292
62.197
61.78078
60.56216
59.84629
62.28798
62.5167
60.49265
59.55603
59.06131
58.71193
57.6668
57.34845
56.93499
55.84178
54.63808
54.83607
54.01635
55.51519
54.88553
58.78156
58.43502
55.95538
56.17857
57.02295
54.95417
53.51387
52.40217
50.44487
52.27452
51.15563
49.39165
48.21082
46.64791
45.9452
45.27554
43.45729
45.08891
43.74542
43.8586
42.84227
41.54497
42.44604
45.67632
43.95087
43.71581
44.24825
43.14623
41.53079
41.55788
41.08946
42.32092
42.748
45.23386
45.46501
44.97037
43.52748
42.15552
43.51655
42.96466
41.45504
42.96468
42.37506
43.57898
45.87406
46.75091
47.13013
47.40726
46.31246
46.65728
45.62533
45.31567
43.27455
43.12422
44.85892
43.59543
42.75433
43.02616
42.23001
47.47786
48.80087
52.22438
50.82121
51.51898
53.44905
52.74198
51.38684
49.22635
49.34232
49.98287
49.34124
51.41186
49.68602
50.87487
49.62167
48.91583
51.61042
52.62253
51.21521
50.82555
49.34872
50.49953
