atr
0.0
3.87786
5.99087
7.34866
7.89304
8.26568
8.72956
10.52245
11.91371
12.67058
13.53697
16.07862
17.58586
17.68758
18.33847
19.65072
20.56281
20.88475
20.93227
20.54497
20.38461
20.05357
22.08474
22.58012
22.89868
23.12377
24.01851
25.78075
27.10356
26.96188
27.00674
27.62269
29.10464
29.14288
28.96624
29.01437
28.68263
30.62816
30.92329
31.0002
37.84661
44.31114
43.9832
43.34154
43.24572
42.92817
40.94901
39.79551
40.78083
42.71649
46.50531
45.06636
64.42376
65.57349
63.37967
62.20684
64.54992
67.24778
68.91723
66.80814
65.39684
65.61207
70.42621
70.39291
73.3577
72.97429
70.55827
70.68482
70.20662
70.35758
69.65561
68.56092
67.95086
65.36365
63.03839
60.04493
57.59958
56.64818
54.59331
53.28736
51.98112
50.4039
51.46576
50.44464
49.31145
48.3242
46.82247
45.40658
43.97397
44.19011
50.44725
51.90316
51.19365
50.15053
47.78478
46.80729
46.24177
50.6845
50.64133
49.78623
49.87293
48.16772
47.85931
46.4665
47.57604
46.80918
45.54209
44.43194
44.01038
43.93821
42.20905
42.43126
41.82903
40.67053
41.12977
39.8055
38.3194
40.62444
42.55484
42.54021
42.21305
43.35997
50.28855
53.35008
52.29293
51.81129
50.0062
47.98433
47.72045
46.91827
46.4984
47.13351
45.99826
53.89553
53.86228
52.65354
51.51043
50.26611
49.10711
47.57874
45.82955
46.87315
56.2115
59.67068
72.6942
71.35747
69.66622
66.91792
68.17378
67.29923
64.25928
62.46862
60.62943
58.52519
56.74696
58.64432
59.86758
59.75704
58.8694
62.3573
73.36106
73.40956
83.72173
83.38875
86.98455
95.9328
97.7476
104.12134
119.04125
119.05616
122.35643
120.69312
116.92004
113.50789
108.87233
106.15145
103.15706
99.06227
97.32996
93.58997
91.99997
99.95783
107.17513
108.20833
120.89274
120.39897
116.07904
115.40768
120.79713
118.67662
116.72972
115.67903
116.55767
114.47284
109.58263
105.89102
101.92094
97.58159
94.58862
93.06586
89.74187
88.25031
87.85886
84.93965
82.20682
80.16133
77.58124
75.41472
78.24224
77.51065
75.07775
80.22791
88.42592
89.54835
89.17633
86.02016
82.94801
80.98386
77.46073
75.85639
74.11236
73.31505
73.39041
70.40609
70.68851
69.78862
73.08943
74.11947
75.18094
75.64587
79.73117
84.1368
93.2106
91.4827
95.46465
99.93074
97.13069
99.37564
100.8681
103.26037
101.61678
100.65129
97.91834
96.83275
95.55469
93.99722
92.5167
92.21479
89.90445
89.13556
88.06445
86.36413
83.73741
81.86688
82.09067
80.05348
82.24252
81.47805
79.39534
76.77353
74.7547
85.56437
87.28763
86.72565
89.10239
86.58365
84.33625
81.54794
78.13738
75.40899
75.29621
72.02862
71.50586
69.68973
67.93689
65.0364
63.43808
62.33608
61.96993
59.95994
61.03423
65.60321
64.10869
62.46593
59.71694
59.36287
60.00409
59.32451
58.93633
56.5216
56.04291
54.79056
53.45266
52.54033
52.88816
51.54258
52.8324
52.37937
51.2037
51.58629
50.77441
49.7791
48.02345
46.74892
46.18685
45.66993
43.95851
42.15219
43.07489
42.79954
42.60029
42.14169
54.093
65.91064
65.4406
67.56484
70.6795
72.05525
70.33916
68.8985
66.54218
67.43203
66.90117
63.9368
69.75345
71.21035
78.83818
82.27831
88.98486
94.98166
105.48297
104.07633
103.61088
103.0151
100.70545
104.79792
111.52664
110.11831
107.23128
106.07048
110.76116
110.20036
109.02248
106.1873
103.60821
106.51905
105.23555
104.14729
102.10963
105.71966
108.38397
109.6244
112.07408
110.13236
108.77934
104.07938
104.05443
103.40768
100.97285
99.87765
103.2821
107.23552
105.95156
103.59787
104.41231
102.58572
98.98959
96.81748
93.68766
92.70068
90.53349
90.99324
91.3973
89.65463
87.69145
85.47563
86.14308
84.84501
82.11536
79.32141
77.94131
78.4455
76.63225
73.70209
73.54837
72.70848
71.93216
73.1763
71.93942
74.36017
80.56659
82.47969
83.71257
82.15953
87.80171
86.62373
91.4656
89.5802
89.1459
89.44191
89.18963
87.36251
86.25805
90.2789
89.05255
86.98237
84.9122
82.8549
86.39026
86.5681
83.97252
81.5152
82.9034
81.07459
80.29069
77.5535
75.72825
73.95551
72.08441
69.29266
67.5939
66.78219
65.86847
66.87929
68.27148
66.41566
64.10812
62.52754
60.27557
58.13517
56.6248
55.98946
58.53093
68.77872
67.90809
67.05537
65.28213
63.81841
66.22852
65.11149
63.65352
64.4897
63.30615
95.54928
97.4929
96.45627
92.96725
90.24245
88.51441
85.60053
82.00906
78.29627
74.49939
77.52444
92.41555
93.20372
93.35703
90.9901
87.83866
83.83376
81.9292
79.25855
75.30722
73.07099
74.13164
71.13652
68.65248
67.9773
69.9075
73.67839
74.2635
71.83397
70.76869
68.30092
66.70014
63.51799
60.30956
58.13316
61.2658
61.69252
60.63306
58.40855
56.37937
54.12799
52.41313
51.31077
50.31928
49.14433
49.64831
49.032
50.32972
49.30188
48.06889
46.32111
44.04746
43.46907
43.36056
42.19338
41.32243
49.51511
59.61332
60.52165
60.51296
58.91918
57.26209
55.92409
54.97022
52.36949
50.66953
48.87671
48.58623
53.11078
55.77001
55.0493
53.66578
53.29608
52.32779
50.97509
50.05044
47.98398
53.16012
52.19154
52.57286
51.27337
49.34313
47.26005
46.06576
45.33749
45.79981
47.74197
48.02754
46.64129
45.84548
48.89866
50.49019
53.82017
58.22659
61.55255
61.40237
62.35577
65.47964
67.12538
66.75928
65.92719
64.50382
64.53926
63.65074
62.13712
60.12661
60.55828
59.87555
60.87515
58.88621
59.0022
61.42132
62.03266
61.3089
59.6404
57.6118
56.81168
54.91584
56.619
57.86121
66.58541
68.27717
68.14165
67.97368
68.41056
68.48123
66.43686
64.12137
62.88056
62.50695
60.97002
62.79288
62.67339
68.64386
69.31644
67.48884
67.28606
65.80634
64.63946
62.83522
61.04413
62.13526
60.45489
60.15668
58.04692
57.65428
58.56183
57.07027
55.17525
53.37131
51.89836
49.6199
48.63777
46.90578
47.27608
49.18208
49.01193
48.94822
47.84192
46.19178
47.46808
45.79393
44.67365
45.16625
45.25437
48.82835
49.00775
49.26291
49.41699
49.60149
48.55853
47.51863
46.05373
46.84632
51.07658
51.49826
50.93838
50.45492
49.83457
50.52139
50.642
53.42543
52.32362
51.17264
50.43174
50.65233
49.25931
47.86936
46.19155
51.83215
52.12985
51.87558
56.81304
57.28568
57.12241
56.0651
55.15331
55.84807
55.42964
60.39895
65.18902
65.31838
65.50992
66.47636
66.3209
74.88655
76.44894
74.46187
72.57817
74.0883
79.36056
79.97981
78.26054
78.3305
76.09475
77.6037
79.45129
79.24763
78.37279
84.77474
86.43797
85.83883
89.52034
88.45603
86.66489
86.35025
85.99023
88.29165
102.30296
102.48275
99.37469
99.48793
96.27593
94.10837
89.99206
88.06691
85.56142
82.7506
81.71984
88.55128
96.56262
94.43315
93.86649
91.12032
88.19244
89.10726
85.59889
82.37397
83.1144
81.65694
84.34144
83.82134
83.04839
86.3685
83.44718
80.65524
78.04987
78.38702
75.43152
73.25784
73.28799
71.79313
71.7822
70.2249
68.50955
68.09529
66.75063
69.57916
68.66636
82.12305
87.20212
86.11482
84.68805
85.16962
83.21464
80.1986
82.39156
80.60359
79.10262
79.80886
77.22608
75.18708
77.11229
76.83069
75.13207
74.87335
73.66097
76.57876
74.23385
75.01214
75.76771
74.79144
75.46062
78.01772
75.76217
73.47273
70.05825
67.86695
67.19859
68.62941
70.35016
69.10444
