atr
0.0
0.01429
0.02755
0.05058
0.0734
0.08316
0.08864
0.10088
0.11439
0.12336
0.13312
0.1379
0.14305
0.15855
0.17151
0.20926
0.29431
0.31472
0.36295
0.36488
0.38596
0.38982
0.39269
0.38821
0.39477
0.39443
0.38126
0.40045
0.41471
0.44651
0.46176
0.46092
0.47157
0.49432
0.52186
0.51102
0.51023
0.52736
0.51112
0.49747
0.51407
0.50236
0.4979
0.48448
0.47487
0.48595
0.48981
0.47411
0.46382
0.46498
0.44962
0.43393
0.44865
0.43875
0.43027
0.41239
0.40508
0.38829
0.38412
0.3774
0.36258
0.35026
0.33738
0.35543
0.35504
0.34539
0.33501
0.32465
0.31932
0.30865
0.30589
0.33476
0.34799
0.34956
0.35102
0.34238
0.34221
0.32705
0.32155
0.30929
0.29934
0.29653
0.29821
0.30048
0.30045
0.31327
0.30518
0.2991
0.30059
0.30912
0.30275
0.29541
0.2886
0.28156
0.27716
0.27593
0.27908
0.27986
0.27201
0.26973
0.26975
0.26334
0.27381
0.29854
0.29579
0.29966
0.3004
0.31251
0.31519
0.31125
0.31116
0.30179
0.29666
0.28904
0.28411
0.28025
0.2688
0.26603
0.25346
0.25249
0.25946
0.25521
0.24698
0.24648
0.24388
0.25432
0.26258
0.26239
0.26508
0.25972
0.27617
0.28644
0.28312
0.30433
0.31045
0.35256
0.35238
0.34578
0.36679
0.36417
0.36815
0.36614
0.35428
0.34968
0.34256
0.35452
0.34491
0.33456
0.32995
0.3371
0.33016
0.32872
0.31381
0.31068
0.31706
0.31656
0.32538
0.31928
0.31147
0.30851
0.30076
0.29356
0.28617
0.27858
0.2694
0.2723
0.2807
0.27423
0.27964
0.27324
0.26586
0.26116
0.25822
0.25763
0.25494
0.27102
0.27095
0.27302
0.27709
0.26801
0.27887
0.29538
0.30857
0.31081
0.30861
0.31228
0.30926
0.29646
0.29314
0.2872
0.27954
0.27743
0.2869
0.27855
0.27008
0.26579
0.25752
0.25198
0.25184
0.25457
0.25996
0.25282
0.26833
0.26059
0.25841
0.25709
0.26158
0.26076
0.25642
0.24667
0.25334
0.25667
0.2462
0.24932
0.24294
0.23559
0.23805
0.24747
0.26551
0.2644
0.26409
0.27594
0.26909
0.26844
0.26212
0.26626
0.27009
0.26366
0.26411
0.26453
0.25778
0.26151
0.25497
0.25605
0.24847
0.23858
0.23368
0.23699
0.23292
0.24343
0.25604
0.24918
0.24209
0.24337
0.24242
0.23439
0.2255
0.22011
0.21582
0.20897
0.21262
0.216
0.21129
0.22405
0.22733
0.23038
0.23107
0.22599
0.22771
0.23501
0.2268
0.22917
0.22923
0.225
0.25464
0.2636
0.26048
0.26259
0.26669
0.28121
0.2847
0.31722
0.34813
0.38327
0.41232
0.42144
0.42419
0.44104
0.43953
0.43314
0.42077
0.42786
0.43444
0.41841
0.40567
0.39455
0.40565
0.40525
0.42773
0.42646
0.46529
0.47705
0.45869
0.47236
0.48005
0.4729
0.46841
0.45281
0.46261
0.44456
0.43566
0.44669
0.45693
0.44572
0.42888
0.43467
0.43863
0.4323
0.41499
0.39749
0.38124
0.37044
0.38683
0.37849
0.36574
0.35676
0.3427
0.3368
0.32774
0.3229
0.32412
0.32311
0.32289
0.3284
0.32851
0.33648
0.3403
0.34028
0.3424
0.34437
0.33977
0.32693
0.32144
0.30705
0.30083
0.29649
0.28817
0.28973
0.28332
0.27737
0.27041
0.26181
0.26525
0.25988
0.2606
0.26413
0.26455
0.25922
0.26856
0.26295
0.2606
0.28913
0.29062
0.28629
0.28584
0.27899
0.27264
0.26816
0.26544
0.26005
0.28862
0.30014
0.29871
0.30594
0.42909
0.43415
0.42814
0.41542
0.4086
0.41299
0.40777
0.4015
0.39068
0.37563
0.37309
0.36644
0.35027
0.33667
0.32191
0.31463
0.31216
0.31343
0.31533
0.31209
0.32052
0.31548
0.31652
0.30605
0.29205
0.28333
0.27595
0.26838
0.27135
0.26911
0.26132
0.25551
0.2444
0.24409
0.24451
0.24276
0.23471
0.22937
0.21799
0.21027
0.19954
0.18814
0.1797
0.1733
0.17163
0.20295
0.21345
0.20892
0.20685
0.20422
0.20606
0.20063
0.21701
0.21651
0.2139
0.21005
0.20648
0.20744
0.21263
0.21458
0.2114
0.20558
0.19876
0.19313
0.19005
0.1879
0.18448
0.18202
0.19687
0.20281
0.20118
0.22538
0.23786
0.2323
0.22999
0.22356
0.22259
0.21598
0.20769
0.20072
0.19781
0.19296
0.19347
0.19179
0.19523
0.19557
0.19303
0.18853
0.18221
0.18062
0.17915
0.17635
0.17233
0.17216
0.17843
0.17426
0.17681
0.17847
0.17572
0.20103
0.20524
0.20558
0.2209
0.2494
0.25659
0.27398
0.27083
0.26792
0.27378
0.27208
0.2755
0.27154
0.27
0.26143
0.25633
0.25302
0.28566
0.28668
0.28406
0.30235
0.30289
0.30126
0.2876
0.28562
0.28237
0.27505
0.26612
0.26211
0.25768
0.26927
0.28861
0.29442
0.30125
0.30973
0.30404
0.29732
0.28465
0.29075
0.2857
0.301
0.29736
0.31326
0.32446
0.31271
0.31038
0.30178
0.30165
0.32939
0.33015
0.32371
0.32844
0.33355
0.33973
0.34903
0.34053
0.33264
0.32959
0.32391
0.32934
0.32582
0.31683
0.31491
0.31099
0.29949
0.28881
0.28176
0.28734
0.27753
0.26985
0.25772
0.25003
0.24431
0.23686
0.23494
0.23316
0.22722
0.22813
0.23112
0.23247
0.23372
0.26917
0.27066
0.26204
0.25832
0.24844
0.24284
0.23407
0.23306
0.23141
0.22988
0.22418
0.21388
0.21646
0.216
0.212
0.20543
0.20361
0.2005
0.19617
0.18645
0.18313
0.17719
0.18596
0.18125
0.18045
0.17756
0.17631
0.173
0.1685
0.16503
0.16682
0.1649
0.16884
0.17035
0.16532
0.16137
0.16627
0.20511
0.20546
0.19936
0.21869
0.21735
0.21826
0.22838
0.2285
0.22075
0.21712
0.2259
0.23262
0.22243
0.2194
0.2123
0.205
0.20035
0.20104
0.19597
0.20054
0.19836
0.19633
0.19445
0.18842
0.18139
0.17701
0.18651
0.1989
0.20469
0.20578
0.20609
0.22565
0.23882
0.23962
0.26893
0.29044
0.29469
0.3065
0.31675
0.30984
0.30413
0.29884
0.29607
0.33063
0.32559
0.33662
0.329
0.31979
0.31337
0.30956
0.30245
0.31013
0.31441
0.30552
0.30298
0.29491
0.33171
0.34516
0.35122
0.35756
0.36487
0.37596
0.37053
0.36335
0.36168
0.35942
0.38089
0.38583
0.38184
0.36813
0.36398
0.35584
0.35114
0.34606
0.35848
0.36002
0.35502
0.35966
0.37683
0.37705
0.38583
0.40113
0.39677
0.38985
0.38701
0.37436
0.36834
0.36488
0.36739
0.35544
0.34076
0.33857
0.33438
0.32335
0.31097
0.29805
0.28247
0.27372
0.2806
0.27841
0.27424
0.27537
0.27427
0.28825
0.29195
0.29038
0.28535
0.2814
0.28058
0.29054
0.2905
0.28832
0.29344
0.2882
0.29404
0.32018
0.32803
0.36888
0.36896
0.36404
0.41018
0.40373
0.43704
0.44082
0.44648
0.45173
0.44732
0.45108
0.46458
0.45354
0.45114
0.43963
0.42609
0.41208
0.41479
0.39945
0.39806
0.3832
0.36868
0.37449
0.36631
0.35872
0.35452
0.3442
0.3539
0.34934
0.33653
0.33106
0.33241
0.34153
0.33142
0.32275
0.31683
0.30492
0.29028
0.28098
0.27233
0.26788
0.26303
0.2521
0.24909
0.25916
0.26065
0.26274
