atr
0.0
7.44214
13.03056
17.29552
25.0387
28.98879
31.88173
35.10233
36.44502
40.27037
43.40677
53.962
64.89329
71.18305
74.95784
79.15228
81.34283
81.37834
79.77989
79.13204
79.58046
82.53543
81.90933
82.69509
82.61973
80.85903
81.19339
79.926
78.84272
76.75109
74.06673
72.09839
70.60136
69.19627
67.12939
66.53301
69.35208
68.60407
68.27735
68.65897
70.32119
69.0111
75.58174
74.46876
74.21599
72.90413
71.06098
70.52662
80.70329
85.29592
84.50764
84.70566
81.87383
79.63713
87.31162
84.60007
84.48364
85.26624
89.74722
88.92099
99.78378
102.32279
108.93045
110.50685
109.72136
109.44126
106.40974
103.25476
102.59156
102.59288
102.33625
100.0408
104.75931
111.98151
111.67854
108.54079
109.43002
114.03859
110.73797
109.9124
107.64152
107.28284
105.19121
103.37469
103.23936
104.61012
103.13368
100.75699
100.56006
100.84506
99.57041
97.87252
97.87663
95.64901
96.36194
95.1218
94.58953
93.33814
91.28755
89.04344
99.47105
101.55026
100.86525
98.72844
96.22213
96.12769
106.48357
103.23117
101.43609
101.71708
102.59372
99.05059
97.24627
96.87082
94.12505
92.02897
90.13333
88.04952
88.54598
88.93698
91.99791
89.40092
85.838
88.08886
88.09037
85.97391
82.98506
81.17756
82.66844
80.83498
91.2032
95.90226
101.36781
104.70939
102.17515
100.44336
100.6424
97.7158
96.11182
93.73669
90.29192
87.55679
88.80273
105.03111
110.88603
107.3156
112.63591
111.58763
109.5778
107.5601
104.30581
102.52539
99.98715
98.10378
95.53923
93.20785
94.61658
108.28682
104.50705
112.56869
113.91378
124.23208
124.26908
131.46629
134.50512
134.89047
133.09115
138.76678
142.43773
139.4036
139.37478
138.35515
133.57192
132.17393
131.55936
130.93584
128.15613
123.30641
124.99738
121.71828
123.38126
120.13974
120.14548
118.34794
115.70952
111.56598
111.54127
110.96046
107.52543
102.87933
106.63938
109.04799
112.53528
109.59204
105.2469
100.63426
100.51324
99.63087
109.35509
114.41044
113.97398
111.11084
112.79578
114.70394
113.16366
112.16697
108.0279
105.52376
105.52064
102.76916
100.09637
95.91091
101.4237
100.51701
101.5508
102.11502
198.95181
198.97954
190.61886
202.50322
199.08585
192.51615
184.25571
187.8803
183.50314
178.54291
177.98485
177.43236
171.18719
168.0181
169.50324
168.57087
187.37795
194.18595
190.9241
183.1138
190.31996
185.34711
180.2566
188.58613
182.9114
176.28202
168.77473
164.53654
159.26678
154.27487
147.93881
143.15746
141.43122
142.78827
161.19625
167.11081
186.79218
188.73559
182.62377
179.85564
209.82881
212.53961
230.21535
239.48068
239.73635
239.80661
231.77971
225.24616
219.855
209.87465
201.57717
195.03023
187.22307
179.76928
174.89647
169.90244
167.19512
161.36976
156.59192
151.54964
146.69466
144.85933
147.92009
144.4058
140.34396
143.57082
138.74433
139.61831
135.29986
134.33987
131.24845
126.33142
127.73703
123.24224
120.60637
115.97163
112.73651
109.89462
105.85143
102.6299
101.74776
97.47864
95.08302
96.90709
98.30444
97.2127
97.34536
97.99426
100.24682
97.72847
93.49001
93.29144
100.43133
103.68624
103.34865
100.18232
100.28501
97.81322
96.77228
94.05069
91.42135
97.7484
96.24137
99.1527
104.98394
113.19866
135.32732
136.56323
138.38943
136.21804
137.55889
134.34254
138.39022
136.08235
133.32218
128.99417
139.38458
141.42711
138.77732
137.1018
136.98667
131.16119
156.96325
155.11016
149.31515
149.69478
143.07873
146.5581
143.63395
141.39224
141.81922
139.17428
135.19969
131.90828
127.56912
129.66275
125.40613
121.04212
116.66482
121.14877
131.01385
139.09001
139.66572
141.60674
144.34697
139.97648
135.38887
129.86252
127.95448
129.01916
124.88565
126.17025
123.40666
123.15904
120.64768
117.39713
115.86877
115.43885
113.86394
113.58794
112.54594
112.91123
110.93543
109.10576
108.35606
105.75634
104.08946
101.88593
107.8155
106.50654
104.9775
103.62411
100.98739
97.91257
95.20453
92.80778
91.51365
90.61625
87.52652
84.30891
96.39399
97.00799
97.15027
99.06311
103.0586
99.78799
96.87385
94.53214
91.3077
89.08858
94.89511
93.2576
94.34063
101.34916
101.12493
99.23958
97.86533
94.53994
98.82566
97.00954
113.84315
111.07507
110.26256
108.81166
108.53226
104.7371
104.62588
103.09974
103.51905
103.91912
100.69989
97.94633
95.95016
92.89729
92.02463
89.70073
95.3571
91.60945
93.68806
97.06535
97.67354
96.504
92.62085
91.17936
103.1587
99.5045
96.01061
103.52485
110.48736
109.47827
106.71053
105.52692
102.52857
101.81367
99.70984
98.38199
97.10542
93.13646
94.56886
94.28251
93.13162
89.24365
85.8741
83.96881
81.97461
78.89428
86.90183
86.88598
84.89341
82.55174
82.6259
81.4162
80.21932
77.70366
74.86554
101.078
106.47814
106.39613
101.76141
98.34774
97.50719
94.65096
92.66803
94.20103
94.59953
91.72599
90.49842
88.0771
88.93302
85.34567
82.49169
80.26728
91.50319
94.61439
98.82265
95.36889
93.94468
96.89006
116.29434
115.48761
113.9592
115.43783
121.14799
132.71527
128.50633
126.57945
121.9052
120.32626
118.86081
118.19647
115.97886
116.08823
115.30978
115.30551
111.85512
109.78333
106.63166
102.65726
102.24745
99.5362
96.63362
97.01265
93.92246
93.50085
91.64008
92.30864
89.46517
88.80409
87.98951
85.13311
82.04575
80.89391
80.97363
78.4548
77.09731
74.49036
73.62891
71.01827
69.94911
68.11489
69.77454
71.21207
70.23764
69.48424
71.90965
71.19467
71.96648
69.8703
70.09814
68.17113
67.25105
67.59026
68.73524
65.99844
63.97641
64.93095
66.80945
65.00592
64.58335
62.58383
60.37927
58.37575
60.7782
59.93761
58.0435
57.12253
55.75235
63.54647
65.33101
69.24951
70.94097
70.86162
80.2665
79.18675
80.0827
81.71965
79.95039
80.02464
77.79003
97.63574
103.53176
99.44878
95.86458
93.02211
89.58839
87.3985
84.98075
86.20641
84.9081
90.98038
93.19606
93.70706
90.96798
92.14527
93.60704
91.48725
91.05459
93.52926
90.41431
91.68472
88.98367
87.31126
85.25117
82.74037
84.13463
80.7093
78.22935
76.8144
74.62123
72.72471
71.7258
74.09896
74.13903
77.6291
76.91417
74.63458
78.34069
78.24278
77.44329
81.35877
83.29386
80.00644
76.29098
74.4702
74.8659
73.40191
71.2182
69.27404
68.98232
67.42716
67.35593
64.99122
62.89756
60.28631
59.97514
58.05549
61.83724
60.06958
73.74247
72.25015
71.70942
70.65589
69.17262
71.36743
70.61618
69.53431
67.37686
65.03923
61.90286
65.76622
66.61721
69.74598
73.13627
72.5101
72.62581
71.01468
70.72006
70.09077
67.43072
66.65567
67.74455
65.17636
63.51805
67.82676
76.43557
76.42088
77.26082
77.67076
79.53714
76.3602
74.87804
75.85961
73.00607
73.19563
76.37666
80.95475
82.69084
82.23078
79.5993
77.06792
75.03593
74.2005
72.09618
69.4986
76.9137
74.407
77.37793
77.92237
78.21934
77.16653
75.79678
78.91772
77.05217
74.93344
73.13177
70.83521
68.75127
67.46618
67.20717
65.01666
66.60975
65.54905
63.20769
63.37572
71.23245
70.46013
69.72084
67.90863
65.3623
66.64071
64.97352
64.56255
63.38951
62.07598
60.02769
59.63786
58.44515
56.41336
54.59526
52.67703
58.91438
59.55835
73.87061
75.95414
75.1117
73.12872
71.13453
73.41635
74.14518
73.28053
70.7112
70.56112
69.64604
69.58346
68.80679
66.4813
67.66121
68.06255
70.80737
70.19327
70.61447
68.74486
67.15166
66.23011
64.18796
65.84811
68.50181
71.05311
72.18503
