atr
0.0
0.55857
0.94653
2.21749
3.24053
3.67049
3.94403
4.37874
4.89526
5.00631
5.54372
5.6706
5.6577
5.87643
6.00954
6.10172
6.05374
5.93276
5.74756
5.75345
5.67963
5.71609
5.84851
5.81576
5.93963
6.01323
6.04157
5.95289
5.83197
5.87325
6.04945
6.17878
6.19529
6.18349
6.08538
7.07999
7.43571
8.42316
8.88008
8.98578
9.3168
9.79417
9.67245
9.75298
10.27991
10.39849
10.34289
10.40054
12.77264
13.2246
14.23855
14.11008
14.40436
14.19762
13.79851
13.74361
13.90764
13.67852
13.55149
13.29781
13.11439
13.26122
14.60185
15.141
15.32022
15.23235
15.07718
14.63809
14.47466
14.07433
14.1383
14.16271
14.97037
14.59892
14.08114
13.99677
13.547
13.40507
13.13971
13.4233
13.33307
12.84285
12.47122
12.54399
12.49227
12.19068
12.21492
11.90171
11.7673
11.37464
10.94574
10.5989
10.56612
10.15925
10.01359
9.94405
10.9309
11.04584
10.83614
10.45427
10.20396
10.06368
10.12413
9.98312
9.69004
9.38933
9.31437
8.94763
8.93709
8.62801
8.35029
8.2767
8.37122
8.39899
9.18907
9.39127
9.36261
9.19314
9.02792
8.89949
9.00239
8.8765
9.29961
9.19964
9.15466
9.12004
8.99004
8.74432
8.47259
8.14312
8.06361
7.96692
8.02357
7.87331
7.89451
7.67918
7.65567
7.64098
7.68377
7.93064
7.8106
7.96341
8.31674
8.31983
8.37841
8.13638
8.08236
7.81076
7.59356
7.33474
7.10868
7.07949
7.17096
7.05089
6.98154
6.80214
6.67913
6.55491
6.86527
7.59275
8.03899
8.25691
8.13142
8.24346
8.29964
8.05467
7.93862
7.78443
7.77769
7.92714
7.72234
7.88503
8.34896
8.42689
8.14568
7.97456
8.83352
9.66684
10.06135
10.23483
10.94377
10.9885
10.68147
10.41922
10.22642
10.31239
9.93079
9.98573
9.74246
9.59657
9.40896
9.08404
10.14161
10.10363
9.95766
9.77426
9.61609
9.44352
10.01255
10.27237
10.10863
10.24373
10.26346
10.54607
10.30421
10.06962
10.18108
10.48957
10.24746
10.07121
9.96255
11.40737
14.35685
15.01064
15.21631
15.11157
15.1386
15.47085
15.74579
15.41252
15.26662
15.13972
14.90831
14.53486
14.7438
14.54781
14.0694
14.06444
14.16627
14.11582
13.60469
13.34435
13.28261
12.711
12.51307
11.97214
12.06413
11.9524
11.5208
11.56718
11.23952
10.77813
10.60969
10.57042
10.54611
10.1421
10.27338
9.85885
9.87679
9.59631
9.65586
9.55687
9.36066
9.64347
9.71108
9.901
10.50665
10.51617
11.16216
11.73129
11.4812
11.18254
12.45522
15.61056
19.78695
20.39788
19.56017
19.48588
18.74546
18.57221
18.11419
17.76247
18.22515
20.04907
20.51342
20.84317
20.72366
20.45054
20.01908
19.74343
21.60675
23.4777
23.79501
23.27179
22.90738
22.10471
21.73937
21.8487
21.62665
20.92975
20.60048
19.67973
19.33189
18.92033
18.58102
18.67523
18.11272
17.34609
17.41637
16.89235
16.35932
16.15437
15.5462
15.02576
14.89535
14.41497
13.86818
13.52474
13.81226
13.8371
13.46802
12.91745
12.9862
12.98647
12.52601
12.06844
11.92712
11.6209
11.79798
11.70883
11.65463
11.55002
11.64216
11.32415
11.30242
11.12868
11.16234
11.06003
11.36503
11.29467
11.20577
11.46107
11.09885
10.7125
10.91947
11.06522
11.43485
11.36879
10.94459
10.7764
10.56237
10.11578
10.30465
10.33217
10.17559
10.4009
10.23084
10.13507
10.23399
9.8787
10.1938
10.30995
10.3771
10.66088
11.2301
12.02938
12.64871
13.04666
12.75547
13.10151
13.44497
13.33604
13.2049
15.05598
16.32698
16.97434
17.3776
17.47777
17.02507
16.54471
16.68223
16.73207
16.30621
16.09434
16.35331
16.92665
16.47689
16.30068
16.57992
15.80064
15.40916
15.4928
15.97117
15.8318
16.01738
15.47257
15.09667
14.58548
13.97938
13.40371
13.30344
12.68748
12.2298
11.97053
12.41264
12.29745
12.89906
12.81198
13.15613
13.04426
13.51681
13.08061
12.83986
12.59701
12.29508
11.96186
11.62458
11.61568
11.67885
13.11536
13.93498
14.28319
17.06368
16.99913
16.90419
17.64889
17.2004
16.90037
17.20392
20.81507
28.45685
33.1385
33.69932
34.16937
34.85727
34.25747
34.29979
33.52123
32.92829
32.16698
31.57648
32.82531
35.06779
34.87509
34.52115
33.20107
32.10385
30.79786
29.8623
29.37285
28.63693
27.83144
26.81848
25.9093
26.26721
26.63526
25.68632
25.09872
25.95667
25.56619
24.62932
23.77223
23.10564
22.67381
22.33497
21.6239
21.88648
20.87101
20.08594
19.2548
18.72517
18.1348
18.1866
17.75399
17.71085
17.83579
17.25037
16.66535
16.17925
15.81788
19.8516
20.42077
21.24714
20.74378
20.54922
21.0107
21.4478
22.96295
22.8656
22.3852
21.73126
20.94617
20.52287
20.45624
20.64579
20.75395
20.33867
19.94662
19.55115
18.95035
19.20033
18.58387
18.05503
17.68895
17.58188
17.20532
16.89137
16.79556
16.31087
15.9851
15.77473
14.98368
14.68342
14.50103
14.78881
14.20033
13.93459
13.44355
12.85687
12.4528
12.74546
12.84579
13.90466
13.99004
14.32361
13.94764
14.66923
14.63572
14.66674
14.38054
15.3805
15.45618
15.35217
15.22416
15.08672
15.02409
14.85452
14.45991
14.39706
14.2687
13.98236
13.95291
13.9027
13.65393
13.64365
13.71411
13.54453
13.30563
13.15309
13.69501
13.95037
14.14534
13.87353
14.02542
14.30289
14.20983
14.0827
14.86465
14.85289
14.87625
14.84081
14.58575
15.53534
16.3821
16.35338
16.08599
16.20057
15.8441
16.26952
15.83527
16.02489
15.62668
16.68835
16.7249
16.38812
16.22825
15.97981
16.06053
15.57264
15.21316
14.65294
14.63844
14.41141
14.07631
14.20729
13.74962
13.46822
13.40835
13.05204
12.94904
12.80553
12.62228
13.0064
12.88238
13.69221
13.23848
13.04359
12.83476
12.34513
13.12405
13.3259
13.11191
13.24678
13.23986
12.82416
12.58172
12.42231
12.09143
11.68561
11.63236
12.10933
12.99152
12.88998
12.79927
12.56789
12.57947
12.18951
11.83597
11.95626
11.56439
11.30479
11.01873
10.87382
11.06355
10.80972
10.82903
11.05838
10.79136
10.40197
10.14398
10.05583
10.24256
10.24595
10.06695
10.29431
10.27686
9.92352
9.66826
9.84553
10.22442
10.58339
10.65672
11.2491
11.64988
11.42774
11.87576
12.83749
12.82267
12.47891
12.0997
12.11972
12.02046
11.85185
11.50743
11.73619
11.58218
11.32916
11.09065
11.26846
10.94929
10.62434
10.43688
10.58996
10.66925
10.39216
10.01915
9.95778
9.99437
9.58549
9.82938
9.83442
9.82339
9.78672
10.03767
10.03784
10.26585
10.004
9.91229
9.72641
9.59738
9.28828
9.46483
9.83449
9.64917
9.65066
9.5349
9.42526
9.63346
9.49464
9.42931
9.29293
9.16058
8.91696
8.86361
9.31264
9.10388
9.23074
8.92355
8.92758
8.54275
8.37398
7.99584
7.954
7.74014
7.54442
7.36839
7.54136
7.6734
7.60102
7.48237
7.26506
7.20756
7.49487
7.68238
7.79721
7.68813
8.1304
8.23895
8.56188
8.46389
8.43718
8.48381
8.48282
8.51477
8.41942
8.16375
7.93848
7.66859
7.41941
7.53231
7.94571
8.19245
8.2787
8.40737
8.25398
8.53013
8.81369
8.69128
9.33691
9.06855
8.95223
8.73993
8.76493
9.08529
9.00634
8.68732
8.4518
8.25524
7.98629
7.7737
7.67487
7.48738
7.33185
7.47743
7.83476
