atr
0.0
0.2
0.29857
0.38582
0.4804
0.51037
0.54606
0.64063
0.80273
0.81682
0.83847
0.8893
0.9272
1.04097
1.07876
1.09814
1.18255
1.17452
1.17562
1.17593
1.18837
1.19848
1.18145
1.18492
1.27385
1.26858
1.33368
1.31556
1.44159
1.40362
1.71193
1.73894
1.71044
1.74327
1.83732
1.85465
1.94504
1.90396
1.95654
1.98964
1.99324
1.96301
1.89422
1.8432
1.80369
1.74771
1.81859
1.8144
2.02695
2.17788
2.26732
2.24751
2.18554
2.13658
2.04468
2.01292
1.94842
1.91425
1.87394
1.95438
1.97406
1.99092
1.99942
2.02232
2.08358
2.07404
2.06947
2.01308
1.99571
1.98388
1.93432
1.96544
1.96219
1.98703
1.9501
1.95724
1.96744
1.96833
1.89274
1.84826
1.82624
1.87865
1.87946
1.96307
1.99642
1.94382
1.93069
1.98064
1.98417
1.90101
1.88808
1.83036
1.79819
1.73332
1.72094
1.68945
1.67091
1.68371
1.66058
1.63626
1.60795
1.6031
1.58716
1.57665
1.55403
1.5116
1.77435
1.89832
1.96916
1.9735
1.97539
1.98572
1.99746
1.98621
2.12434
2.21046
2.17471
2.32652
2.35319
2.40654
2.51821
2.52477
2.50586
2.59401
2.53587
2.51402
2.51945
2.72306
2.6757
2.64172
2.58088
2.55367
2.72127
3.32261
3.60671
3.61408
3.60379
3.48424
3.37179
3.28381
3.21211
3.0691
3.05559
3.02519
3.17339
3.14101
3.05451
3.06561
3.09378
3.03566
2.91668
2.85192
2.79535
2.73426
2.84467
2.9979
3.06663
3.02329
3.05449
3.0306
3.0527
2.95465
2.8836
2.7662
2.76504
2.71968
2.71471
2.70794
2.78166
2.72297
3.0099
3.12348
3.15752
3.14341
3.06388
2.91646
3.14457
3.2021
3.18838
3.10349
3.0011
3.08531
2.97707
2.95942
2.89804
2.85389
2.83647
2.77172
2.68231
2.61572
2.58817
2.5383
2.63485
2.55379
2.56423
2.51107
2.48457
2.38424
2.3968
2.34917
2.32066
2.31418
2.26388
2.17646
2.17957
2.23174
2.30948
2.2988
2.26531
2.19065
2.12703
2.1651
2.10545
2.12863
2.0773
2.07749
2.08624
2.0608
2.0586
2.18013
2.50798
2.67383
2.59356
2.70545
2.84577
2.80822
2.83477
2.81443
2.72126
2.86546
2.80292
2.81343
2.78318
2.76224
2.7328
2.68688
2.59425
2.56466
2.5329
2.62412
2.63597
2.62268
2.57749
2.50196
2.46539
2.42786
2.39659
2.39469
2.38935
2.35368
2.31413
2.30241
2.25295
2.24917
2.66423
2.77393
2.9165
3.00961
3.03035
3.07461
3.01571
2.92102
2.84237
3.41149
3.41853
3.39863
3.30016
3.22229
3.16998
3.18927
3.61718
3.65095
3.68303
3.78424
3.81179
3.72452
3.5792
3.70354
3.77043
4.25397
4.35298
4.23562
4.1445
4.52204
5.15189
5.09962
5.2575
5.45339
5.40958
5.31318
5.31724
5.13387
4.98073
4.82282
5.00119
5.51754
5.47557
5.48017
5.41444
5.70056
6.00052
6.38548
6.35152
6.34855
6.27651
5.9939
5.82148
5.67923
5.55572
5.49174
5.36947
5.37879
5.22888
4.96396
4.81011
4.87224
4.77779
4.55652
4.59392
4.56078
4.48144
4.58276
4.53328
4.45947
4.2888
4.32531
4.21636
4.32162
4.32365
4.40196
4.48682
4.36776
4.24578
4.13894
4.20973
4.19332
4.51308
4.51786
4.45873
4.3031
4.22217
4.2163
4.15156
4.11431
4.04686
3.98637
3.9152
3.8434
3.73673
3.6591
4.43631
5.14086
5.43937
5.56084
5.43936
5.2194
5.06873
4.88882
4.88819
5.15403
5.00375
5.15348
5.02752
4.88626
4.9301
4.70295
4.52703
4.4851
4.42045
4.4347
4.37508
4.38257
4.52168
4.63227
4.87425
6.31395
6.62509
6.55616
6.59358
6.43975
6.1912
6.13468
6.28863
6.32516
6.20122
6.04256
6.11952
6.2167
6.2205
6.2119
6.11819
6.05046
5.89829
5.89698
6.06791
5.96377
5.96493
6.30315
6.47007
6.59364
6.67766
6.45283
6.27477
6.14943
5.98161
5.75935
5.94226
5.90281
5.93975
5.77191
5.59035
5.45532
5.3128
5.20403
5.0716
4.84291
4.86842
4.87853
4.72578
4.73251
4.89876
4.87456
5.19852
5.49291
5.37556
5.33016
5.3823
5.25356
5.54616
5.35429
5.2347
5.26508
5.079
5.01265
4.8046
4.66784
4.53728
4.62891
4.55398
4.8437
4.87915
4.83135
4.58554
4.74657
4.59468
4.64149
4.88138
6.24128
6.60976
6.63621
6.72148
6.42566
6.27882
5.99534
5.7521
5.60338
5.45099
5.23807
5.37463
5.2693
5.08649
5.17032
5.36529
5.67849
5.67288
5.58196
6.23039
6.33536
6.17284
5.98835
5.77918
5.67924
5.57072
5.45496
5.34389
5.35575
5.17749
5.13767
5.01497
4.82819
4.61546
4.44293
4.38629
4.30441
4.15124
4.04544
4.10076
4.005
3.96035
3.9389
4.04184
3.97956
3.82459
3.83498
3.96677
3.85343
3.77961
3.79892
3.73043
3.66611
3.54996
3.44711
3.35803
3.33674
3.42983
3.4077
3.39215
3.35628
3.24226
3.19853
3.18863
3.11159
3.02147
2.97637
3.04163
3.08794
3.04095
2.97302
2.9228
2.81118
2.72966
2.65254
2.60379
2.60352
2.5347
2.56936
2.58869
2.66236
2.70576
2.66035
2.5839
2.60505
2.77611
2.89425
2.85609
2.83637
2.8002
2.84233
2.82716
2.79022
2.70806
2.60534
2.52639
2.43951
2.47597
2.56126
2.6826
2.7517
3.17658
3.11039
3.04608
2.94779
2.91152
2.99069
2.8735
2.84111
2.80603
3.00703
2.95581
2.93825
3.02123
3.07186
3.14387
3.27574
3.5639
3.61291
3.64056
3.66409
3.63094
3.6823
3.71285
3.71193
3.67894
3.6083
3.47771
3.49716
3.64807
3.60535
3.60069
3.55492
3.44814
3.72685
3.77564
3.7431
3.96502
4.00609
4.37637
4.44663
4.42401
4.32801
4.32101
4.54879
4.47388
4.5736
4.62977
4.85551
4.88225
4.71781
4.64654
4.47464
4.31431
4.33757
4.39346
4.33893
4.29829
4.20055
4.61837
4.92849
5.01717
5.10023
5.66164
5.58152
5.94499
5.92606
5.84563
5.86665
5.93689
5.86426
6.09538
6.38928
6.3279
6.25591
6.01335
5.88811
5.80324
5.64015
5.72943
5.83733
5.97037
5.88535
6.04211
5.89767
5.74927
5.57075
5.64927
5.54789
5.4159
5.32119
5.15182
5.36883
5.48034
5.49603
5.47203
5.49046
5.38685
5.32922
5.13356
4.98117
4.79894
4.73116
4.63036
4.74676
4.80342
4.73246
4.89943
5.17519
5.14553
5.18942
5.17875
5.11598
5.08484
4.92878
4.87101
4.76879
4.74459
4.72212
4.75483
4.68234
4.57932
4.44651
4.32319
4.17296
4.20989
4.0699
3.93276
3.90685
4.03708
4.07228
3.95284
3.84906
3.80627
3.83082
3.80076
3.76
3.615
3.51321
3.40512
3.3319
3.19748
3.45123
3.514
