atr
0.0
0.19786
0.34944
0.42091
0.52799
0.64384
0.72
0.79143
1.27561
1.2645
1.31489
1.3824
1.4408
1.49003
1.5386
1.82655
2.77537
2.92427
3.22611
3.25496
3.28532
3.25065
3.21418
3.11888
3.09896
3.08332
2.97523
2.88985
2.90486
3.37452
3.45134
3.39553
3.66227
3.76354
3.88472
3.80009
3.74937
4.00299
4.04349
3.96681
3.97347
3.82322
3.70228
3.55354
3.61615
3.76071
3.75137
3.60056
3.50909
3.39416
3.26243
3.30654
3.1925
3.12161
3.06435
2.96761
2.9835
2.9211
2.88531
2.85922
2.79999
2.67356
2.58331
2.5095
2.49882
2.42533
2.45852
2.35506
2.3347
2.24008
2.27578
2.27251
2.26948
2.33237
2.32292
2.23842
2.17425
2.07823
2.14979
2.12694
2.12645
2.08027
2.0724
2.04151
2.11855
2.13008
2.09507
2.08114
2.05463
1.98858
2.13226
2.24067
2.32633
2.26231
2.21572
2.11959
2.25319
2.20297
2.12347
2.18894
2.13044
2.08041
2.19538
2.16214
2.11699
2.15363
2.11266
2.10961
2.16107
2.16099
2.20949
2.1531
2.14288
2.24053
2.24049
2.14546
2.08721
2.04527
2.0256
2.03377
2.11708
2.063
2.04707
2.01014
1.9487
1.89379
1.86281
1.93618
1.98074
1.90711
1.9766
2.2597
2.28615
2.31357
2.34617
3.03216
3.01201
2.96258
3.28882
3.31962
3.40393
3.35722
3.30314
3.2222
3.13918
3.46567
3.37741
3.35759
3.31277
3.31185
3.24886
3.20895
3.16616
3.18644
3.14241
3.04723
3.02743
2.94833
2.86059
2.83412
2.86383
2.81641
2.86452
2.8192
2.72497
2.61462
2.51643
2.47954
2.511
2.46736
2.41326
2.37374
2.33491
2.28456
2.2628
2.41117
2.36537
2.41356
2.50331
2.40236
2.50219
2.68632
2.99158
3.00218
3.04417
3.01959
2.97247
2.87015
2.87371
2.81773
2.75932
2.66794
2.69952
2.65741
2.56402
2.50731
2.44464
2.3686
2.33655
2.32537
2.23285
2.20336
2.6074
2.81973
2.78689
2.71212
2.71411
2.95453
3.01206
2.89834
2.89489
2.86383
2.76712
2.69876
2.60956
2.67388
2.71217
2.71273
3.15397
3.14082
3.05077
2.99714
2.90592
2.80192
2.71036
2.90176
2.97949
2.90881
2.9089
2.93183
2.85885
2.94178
2.88237
2.85792
2.84235
2.80361
2.71478
2.85873
2.7731
2.92431
2.95043
2.98326
2.86302
2.89924
2.85286
2.79694
2.69431
2.62043
2.55325
2.48231
2.70428
2.83898
2.90691
2.81784
2.93371
2.90773
2.89718
2.7781
2.71609
2.76565
2.65811
2.61181
2.58097
2.53733
2.49252
2.44877
2.39243
2.33797
2.23526
2.2156
2.28234
2.45146
2.40492
2.42172
2.79445
2.76485
2.79736
3.84612
3.74925
3.78931
3.75578
3.68823
3.53978
3.46694
3.31502
3.48823
3.50764
3.84781
3.89011
3.84939
3.81657
3.8061
3.71781
3.60154
3.51143
3.46704
3.35368
3.26842
3.68567
3.57384
3.52214
3.79056
3.89052
3.77477
3.73728
3.75819
3.73261
3.67956
3.56174
3.55233
3.4543
3.344
3.48157
3.39574
3.31462
3.235
3.2125
3.12018
3.04802
2.99031
2.88314
2.82578
2.91751
2.87483
2.91591
3.1612
3.56326
3.76088
3.81368
3.69556
3.64516
3.54979
3.43766
3.38069
3.29993
3.24922
3.15499
3.1132
3.05797
2.94597
2.90626
2.9201
2.98438
2.89264
3.04174
3.18233
3.10716
3.04522
3.38056
3.40909
3.3563
3.28014
3.35513
3.42333
3.34024
3.28593
3.31337
3.30456
3.22923
3.11286
3.06479
2.9866
2.87898
2.83763
3.56494
3.62816
3.53686
3.3978
3.39867
3.71019
3.74447
3.96772
3.8436
3.69691
3.67784
3.58228
3.52212
3.42768
3.35428
3.39254
3.33951
3.26954
3.19814
3.11113
3.07034
3.14674
3.03555
2.91444
2.80412
2.69811
2.6661
2.56924
2.53572
2.4546
2.35641
2.24096
2.21232
2.22929
2.38434
2.43903
2.42625
2.34151
2.26641
2.17952
2.1467
2.07693
1.99572
1.94174
1.98162
1.92293
1.88486
1.81666
1.77118
1.70681
1.95847
1.94072
2.05567
2.08312
2.0079
1.91019
1.82804
1.76746
1.88764
1.82924
1.80215
1.76343
1.72675
1.68556
1.62873
1.58382
1.59998
1.62569
2.00172
1.96659
1.92326
2.02089
1.97654
1.92393
1.94508
1.89543
1.86147
1.82065
1.77989
1.80704
1.81939
2.02944
2.11162
2.32865
2.3566
2.39542
2.39074
2.32069
2.26921
2.21427
2.29682
2.25062
2.20629
2.1837
2.12629
2.15798
2.13313
2.10219
2.07275
2.29969
2.25186
2.27744
2.27977
2.9905
3.0376
3.04849
2.94646
3.08099
3.05807
3.05035
3.00961
2.98178
2.93451
2.92204
2.87404
2.86947
3.00808
2.96321
2.88227
3.23354
3.284
3.29086
3.24222
3.17992
3.12421
3.11177
3.09879
3.13673
3.26625
3.43223
3.67279
3.83759
4.10419
4.08103
4.0131
4.00859
3.97869
4.06379
4.23709
4.79872
4.9031
4.79788
4.74946
4.5795
4.45311
4.39931
4.24508
4.07186
4.10172
4.23946
4.85878
5.04315
5.27722
5.24384
5.13143
5.08347
5.0075
5.01983
4.88698
4.81077
4.72786
4.93301
4.98994
4.96423
4.95607
4.80063
4.70702
4.5808
4.45217
4.48773
4.46932
4.31866
4.29447
4.14558
4.14661
4.09185
3.99815
3.93471
3.92294
3.96416
4.54529
4.46134
4.37339
4.24458
4.10068
3.9892
3.86997
3.74783
3.68156
3.67573
3.63389
3.5879
3.46448
3.32702
3.19294
3.17273
3.17468
3.22792
3.24235
3.20076
3.14927
3.08004
3.23861
3.24299
3.25778
3.13722
3.03528
2.99347
3.02251
3.06162
3.10365
2.98981
3.00554
2.908
2.791
2.94164
2.95581
3.57825
3.58338
3.44385
3.36715
3.26521
3.22555
3.1923
3.14071
3.07851
2.96362
3.00193
3.22108
3.11314
3.03863
2.91516
2.81479
2.70802
2.77316
2.69651
2.90176
2.84877
2.82029
2.81384
2.77571
2.77744
2.74334
2.7081
3.00181
2.88597
2.88697
2.9329
2.90484
2.97592
3.00478
3.62944
4.13377
4.3885
4.46289
4.38911
4.27846
4.19357
4.0676
3.97492
3.95171
3.81301
3.74137
3.5977
3.46429
3.38827
3.31197
3.22183
3.11884
3.18607
3.37349
3.70395
3.75296
3.84417
3.79388
3.77574
3.79533
3.73852
4.02934
3.91939
4.02658
3.94682
3.95419
3.92603
3.91275
3.96898
3.81477
3.80585
3.72544
3.6929
3.67698
4.05077
4.215
4.30607
4.39564
4.66809
4.68751
4.73198
4.96969
4.83329
4.87591
4.8712
4.68183
4.55741
4.39331
4.3545
4.22918
4.15067
4.03205
4.13119
3.99825
3.93337
3.7867
3.64408
3.50308
3.63428
3.64541
3.54716
3.57022
3.62092
3.64943
3.6559
3.84262
3.76029
4.01527
3.93775
3.8372
3.7874
3.6633
3.56663
3.62687
3.64495
3.97817
4.09973
4.07189
3.96533
3.8828
4.05618
3.91145
4.14563
4.32737
4.37327
4.39947
4.36022
4.31378
4.30279
4.21188
4.27032
4.15386
4.10216
3.99129
3.84049
3.72331
3.68379
3.56137
3.43056
3.52409
3.47023
3.50807
3.48678
3.33058
3.2034
3.29315
3.16578
3.28323
3.33371
3.76416
3.70101
3.68379
3.64495
3.64174
3.6209
3.64084
3.55363
3.51266
3.40747
3.38694
3.2243
3.11971
3.13187
3.33959
