atr
0.0
0.00929
0.02077
0.02785
0.05444
0.07483
0.08949
0.10452
0.11134
0.11839
0.12851
0.14076
0.14784
0.15371
0.15559
0.15948
0.16309
0.16358
0.16047
0.159
0.15836
0.16134
0.15767
0.15641
0.15595
0.1541
0.15237
0.15078
0.14572
0.14103
0.13595
0.1341
0.13238
0.12721
0.12312
0.11861
0.11943
0.12018
0.12017
0.12087
0.12081
0.11789
0.12233
0.12502
0.12609
0.12208
0.11979
0.11624
0.12579
0.13752
0.13627
0.13439
0.13194
0.12823
0.13264
0.12745
0.12477
0.12372
0.12845
0.12714
0.1352
0.14054
0.15836
0.16133
0.1641
0.16452
0.15919
0.15497
0.15104
0.14811
0.14682
0.14419
0.15317
0.19723
0.201
0.20664
0.21331
0.23665
0.23046
0.22685
0.22065
0.2206
0.21556
0.21445
0.21627
0.2244
0.22123
0.21542
0.21647
0.21172
0.20945
0.20306
0.19999
0.19142
0.18489
0.18025
0.17595
0.17409
0.17809
0.17394
0.17866
0.1759
0.17619
0.17218
0.16916
0.17208
0.1855
0.18297
0.18276
0.18399
0.18727
0.18461
0.18214
0.17699
0.16863
0.16444
0.15984
0.15556
0.1516
0.15148
0.16066
0.1599
0.15562
0.15808
0.15893
0.15401
0.14943
0.15019
0.14946
0.14593
0.14765
0.1421
0.14624
0.14793
0.1438
0.1421
0.13909
0.13201
0.12972
0.13474
0.13369
0.13057
0.1291
0.16274
0.18397
0.17726
0.17817
0.17401
0.17801
0.18601
0.18415
0.18243
0.1794
0.17515
0.17122
0.16613
0.16569
0.171
0.16878
0.18101
0.17951
0.18312
0.20218
0.20345
0.20392
0.20293
0.197
0.19079
0.19573
0.19032
0.19316
0.18936
0.18441
0.18838
0.18778
0.18579
0.17895
0.17474
0.17655
0.17108
0.16886
0.16037
0.15891
0.15399
0.16228
0.1614
0.16487
0.16738
0.17185
0.16815
0.16828
0.16912
0.19061
0.19057
0.1891
0.18773
0.19218
0.19274
0.19326
0.20088
0.19511
0.19117
0.18894
0.19473
0.19368
0.18985
0.18486
0.18308
0.18215
0.17628
0.17583
0.16899
0.16763
0.16208
0.16408
0.17164
0.3651
0.40759
0.39705
0.40155
0.38929
0.37863
0.36587
0.37545
0.35935
0.34368
0.33556
0.32659
0.31041
0.29895
0.29545
0.29149
0.32353
0.33185
0.32957
0.32246
0.32586
0.32329
0.3102
0.31376
0.31135
0.30125
0.28545
0.27792
0.27306
0.26427
0.25254
0.2495
0.25382
0.27141
0.28916
0.29208
0.29622
0.29863
0.2873
0.27678
0.31772
0.31931
0.34722
0.37099
0.36592
0.36193
0.34893
0.34258
0.33382
0.32141
0.30845
0.29856
0.28938
0.28014
0.27084
0.27007
0.28078
0.28286
0.27694
0.26931
0.26078
0.26001
0.26073
0.25567
0.25456
0.26423
0.25607
0.25421
0.24891
0.24613
0.25069
0.24278
0.2433
0.23592
0.2305
0.22046
0.219
0.21764
0.21067
0.20419
0.19961
0.19106
0.18456
0.18138
0.18628
0.18226
0.17567
0.17741
0.18402
0.17873
0.17168
0.16585
0.16471
0.16152
0.16284
0.15692
0.16429
0.16041
0.15895
0.15188
0.14389
0.14718
0.1481
0.14895
0.1526
0.15741
0.17545
0.17364
0.17195
0.16752
0.17127
0.16618
0.17002
0.17359
0.17762
0.17494
0.17673
0.17696
0.17289
0.1684
0.16423
0.16035
0.18961
0.19107
0.18742
0.18332
0.17737
0.1747
0.17079
0.16574
0.16176
0.15877
0.156
0.15415
0.15314
0.15577
0.16036
0.15605
0.15061
0.15628
0.17084
0.18649
0.18317
0.18509
0.19758
0.19204
0.19189
0.1889
0.19041
0.18966
0.18397
0.18298
0.18062
0.17486
0.1688
0.16246
0.15871
0.15666
0.15547
0.15579
0.15324
0.15658
0.15325
0.15016
0.15301
0.14922
0.14356
0.13974
0.14618
0.14074
0.13355
0.12901
0.12479
0.12088
0.12296
0.11918
0.11781
0.11511
0.11117
0.10894
0.12188
0.12603
0.12631
0.12586
0.1283
0.12413
0.12313
0.12147
0.11923
0.11642
0.12096
0.11875
0.1317
0.13801
0.14172
0.1416
0.14005
0.13791
0.14377
0.14065
0.15774
0.1579
0.15877
0.15171
0.15016
0.14372
0.13988
0.14204
0.14475
0.14298
0.1392
0.13282
0.12619
0.12218
0.1206
0.11984
0.12414
0.12098
0.12591
0.12692
0.12785
0.12729
0.12391
0.12221
0.13276
0.13185
0.13886
0.14894
0.15545
0.15363
0.14908
0.14986
0.14845
0.1457
0.13886
0.13609
0.13351
0.1304
0.12966
0.13683
0.13634
0.13517
0.13552
0.14012
0.13869
0.13378
0.13637
0.13163
0.12651
0.12462
0.12
0.11929
0.11862
0.11658
0.11111
0.15532
0.16565
0.16453
0.15849
0.15574
0.15748
0.15123
0.14471
0.14152
0.14641
0.14381
0.14139
0.13844
0.14498
0.14319
0.13939
0.13444
0.15698
0.15934
0.16296
0.15632
0.15301
0.15636
0.19091
0.19299
0.19349
0.1911
0.21745
0.2362
0.22933
0.22295
0.21417
0.2103
0.20885
0.2075
0.20125
0.20045
0.1997
0.19472
0.19439
0.19336
0.18812
0.19111
0.18746
0.18193
0.17393
0.18222
0.18135
0.18554
0.18371
0.18273
0.17754
0.18843
0.18926
0.18288
0.17625
0.18009
0.18151
0.17783
0.17727
0.16961
0.17035
0.16532
0.15852
0.15219
0.15418
0.15388
0.1536
0.14977
0.15122
0.14542
0.15503
0.1511
0.15031
0.14529
0.14277
0.14328
0.14162
0.1365
0.13032
0.12959
0.1389
0.13684
0.13564
0.13309
0.13001
0.1243
0.1247
0.1208
0.11645
0.11671
0.11337
0.12242
0.12224
0.12708
0.13086
0.12866
0.14733
0.14966
0.14897
0.15261
0.14814
0.14685
0.14421
0.17391
0.19506
0.19184
0.18528
0.18562
0.18379
0.17852
0.17863
0.18015
0.17371
0.18059
0.18198
0.17826
0.17482
0.17304
0.16997
0.16497
0.16319
0.16296
0.15632
0.1523
0.1507
0.14565
0.14168
0.13656
0.14038
0.13678
0.13201
0.13544
0.13219
0.12918
0.12924
0.13072
0.12924
0.13001
0.13001
0.12644
0.13098
0.13162
0.1315
0.13854
0.14293
0.13701
0.13222
0.12992
0.12778
0.12294
0.11987
0.11845
0.12071
0.12137
0.12342
0.11889
0.11539
0.11287
0.11123
0.109
0.1105
0.10618
0.11217
0.11344
0.11034
0.1146
0.11213
0.11412
0.1124
0.1108
0.10788
0.10661
0.10113
0.1032
0.10368
0.10699
0.10578
0.10465
0.10646
0.10386
0.10072
0.10139
0.09843
0.09854
0.09722
0.09527
0.09347
0.09179
0.09309
0.09287
0.09838
0.10564
0.10381
0.10425
0.10252
0.10591
0.10549
0.10367
0.10483
0.10806
0.11034
0.12032
0.12172
0.12017
0.1173
0.11607
0.11492
0.11671
0.13266
0.1289
0.13398
0.14012
0.14011
0.13653
0.14178
0.14665
0.14475
0.14155
0.14073
0.14139
0.13772
0.14217
0.13773
0.13146
0.1335
0.12968
0.12613
0.13141
0.14059
0.14769
0.15071
0.15423
0.1525
0.14875
0.1467
0.14908
0.14843
0.14497
0.14104
0.14383
0.14355
0.13901
0.13337
0.13099
0.14449
0.14417
0.1553
0.15635
0.16304
0.18353
0.18328
0.20448
0.20487
0.20809
0.2018
0.20096
0.19946
0.19807
0.19464
0.19145
0.1892
0.1914
0.20273
0.20611
0.20281
0.19976
0.19477
0.18943
0.18447
0.2013
0.2012
0.20969
0.21328
