atr
0.0
0.35
0.58214
0.63413
0.85384
1.01071
1.05423
1.09964
1.23252
1.29806
1.33534
1.38496
1.69889
1.69111
1.74817
1.85902
1.89195
1.87681
1.84704
1.87653
2.11607
2.14063
2.3113
2.51192
2.56821
2.5362
2.4529
2.38483
2.2952
2.29555
2.21444
2.13769
2.08286
2.01479
2.25659
2.21827
2.1991
2.12417
3.92959
4.25176
4.11877
3.95958
3.74746
3.6505
3.53904
3.49125
3.51973
3.44475
3.33584
3.23399
3.21728
3.07176
2.99235
3.07075
2.94998
2.84356
2.75116
2.66251
2.66018
2.60231
2.60715
2.49092
2.50729
2.44105
2.36955
2.30244
2.39441
2.47623
2.43365
2.36196
2.35253
2.36878
2.34601
2.29272
2.29467
2.24648
2.22387
2.2486
2.25513
2.18047
2.11901
2.43765
2.41139
2.79201
2.77615
2.805
2.88893
2.87115
2.84463
2.73788
2.8916
2.7922
2.79418
2.70746
2.7005
2.63903
2.60982
2.56983
2.46484
2.46092
2.37586
2.27401
2.27158
2.19575
2.52963
2.55751
2.67626
2.67939
2.658
2.59529
2.52634
2.56874
2.5074
2.41116
2.29893
2.24044
2.25684
2.21778
2.19294
2.17344
2.28677
2.24914
2.21134
2.19196
2.12611
2.08139
2.01772
2.00716
1.9338
2.05138
1.97914
1.91063
2.02273
1.98039
1.89893
1.8533
1.98092
1.92299
1.83421
1.80677
1.78843
1.74639
1.7338
1.70567
1.71455
1.69065
1.74418
1.70174
1.67161
1.63578
1.59823
1.54407
1.63378
1.62779
1.58438
1.67621
1.76934
1.91796
1.99739
1.92472
1.94724
1.95101
1.93093
2.16801
2.1803
2.12099
2.08663
2.0883
2.07342
2.04104
1.9731
1.8786
1.81727
1.76318
1.70224
1.62993
1.6478
1.63938
1.60443
1.57554
1.52657
1.51824
1.58337
1.61884
1.6225
1.57875
1.55812
1.50897
1.46119
1.43396
1.39153
1.665
2.39035
2.30461
2.21857
2.14582
2.04469
1.96221
1.86062
1.79058
1.74054
1.68478
1.68658
1.64826
1.63124
1.62258
1.59168
1.53156
1.49573
1.43247
1.37872
1.48167
1.47726
1.49032
1.60529
1.6092
1.5714
1.52559
1.46876
1.41671
1.36408
1.36022
1.31378
1.32708
1.35014
1.33656
1.30252
1.27448
1.28488
1.24882
1.21676
1.17699
1.14649
1.12031
1.63172
1.8366
1.83612
1.85712
1.82161
1.76149
1.72853
1.73435
1.72118
1.71538
1.66857
1.60296
1.69917
1.65638
1.61163
1.6258
1.6061
1.63924
1.70215
1.907
1.92578
2.00466
2.83075
3.28498
3.19606
3.14134
3.19481
3.08161
3.04221
2.97991
3.06849
2.9886
2.84298
2.71706
2.65512
2.58904
2.4984
2.52423
2.49892
2.43757
2.34203
2.28189
2.25389
2.28004
2.34076
2.27213
2.21769
2.235
2.19679
2.14344
2.12963
2.05751
1.99769
1.94928
1.94719
1.92811
1.86181
1.80383
1.76712
1.69804
1.64461
1.58143
1.52989
1.48062
1.48057
1.4541
1.47595
1.43838
1.48564
1.45595
1.43553
1.38156
1.34502
1.43609
1.46423
1.41178
1.36523
1.31343
1.28675
1.24198
1.23327
1.18589
1.16047
1.20187
1.33388
1.36074
1.40998
1.34998
1.29284
1.26906
1.27127
1.26547
1.37793
1.40094
1.38016
1.38443
1.34054
1.29836
1.29491
1.37813
1.60826
1.64124
1.6633
1.80663
1.82045
2.07113
2.13533
2.43352
2.63113
2.68105
2.59312
2.50861
2.47871
2.46237
2.40292
2.51056
2.43481
2.41661
2.48542
2.37789
2.53233
2.51145
2.43706
2.41227
2.45925
2.35145
2.34491
2.26028
2.25597
2.36769
2.30214
2.21056
2.17838
2.13206
2.06834
2.10846
2.1
2.03357
2.0926
2.06813
2.10541
2.08645
2.06885
2.00321
1.94727
1.87461
1.77428
1.78397
1.7544
1.71409
1.72023
1.73021
1.73234
1.6936
1.63048
1.60045
1.6747
1.62937
1.59227
1.55354
1.48543
1.46361
1.42192
1.63036
1.72248
1.73301
1.7578
1.75153
1.70642
1.77024
1.93523
1.92343
1.87889
1.88326
1.81303
1.79067
1.72133
1.65838
1.61207
1.54906
1.52413
1.47955
1.42387
1.43145
1.42849
1.36931
1.31793
1.34879
1.39174
1.42376
1.39277
1.36686
1.34637
1.39592
1.53121
1.60684
1.59349
1.65181
1.6724
1.7158
1.87324
1.82944
1.81591
1.7712
1.70897
1.67404
1.67018
1.7316
1.67577
1.61964
1.62824
1.57837
1.56063
1.49487
1.56952
1.56598
1.5527
1.50251
1.50947
1.47736
1.45112
1.51104
1.47454
1.45707
1.39585
1.36686
1.35852
1.29577
1.23964
1.18609
1.19137
1.16913
1.13205
1.34119
1.32253
1.30878
1.29673
1.29482
1.2909
1.25298
1.20991
1.19134
1.18268
1.14963
1.18823
1.15978
1.14265
1.09104
1.08668
1.05406
1.02734
1.09039
1.1075
1.06554
1.02086
0.99794
1.0088
0.99103
0.96238
0.95436
0.9319
0.99248
0.98873
0.95811
0.95896
0.98117
0.99823
0.99193
1.09251
1.06804
1.09247
1.36658
1.37182
1.34526
1.34346
1.37321
1.35084
1.34864
1.31516
1.29194
1.24823
1.2955
1.40582
1.43826
1.41981
1.59983
1.78698
1.77363
1.72694
1.75287
1.83124
1.98901
1.97979
1.91195
1.91181
1.95739
1.89187
1.84816
1.77329
1.70663
1.68616
1.70357
1.7276
1.69063
1.63702
1.64509
1.62401
1.61801
1.61101
1.62165
1.61367
1.5877
1.53572
1.51174
1.47804
1.48033
1.49459
1.44855
1.41436
1.38762
1.46565
1.45596
1.61054
1.63621
1.62577
1.96893
1.95686
1.89351
2.19183
2.16528
2.25633
2.27873
2.41525
2.62773
2.65647
2.55672
2.46481
2.4159
2.36262
2.32886
2.23323
2.19157
2.14146
2.08278
2.07044
2.34969
2.29186
2.3353
2.23278
2.20758
2.31632
2.22801
2.13815
2.11686
2.16708
2.12658
2.12468
2.06292
2.02414
1.95455
1.87923
1.84714
1.74806
1.70963
1.81608
1.73493
1.79458
1.72925
1.66145
1.61492
1.586
1.59485
1.56951
1.67168
1.68871
1.80594
1.77052
1.78548
1.74366
1.75983
1.85198
1.91327
1.92946
1.87236
1.80719
1.74954
1.68528
1.66205
1.62404
1.5809
1.56298
1.55634
1.52374
1.52062
1.49129
1.44119
1.42182
1.37598
1.36984
1.35056
1.32838
1.31992
1.28779
1.2508
1.27432
1.36829
1.53484
1.59521
1.58698
2.14148
2.23995
2.35567
2.36669
2.39764
2.36424
2.29322
2.30299
2.32349
2.24753
2.24771
2.28073
2.19996
2.19711
2.16803
2.07388
2.18503
2.12396
2.12653
2.09821
1.99405
2.11019
2.08875
2.0267
1.99407
1.94735
1.90612
1.89711
1.88231
1.83643
1.78455
1.77922
1.81142
1.76632
1.77587
1.79259
1.76169
1.71657
1.75967
1.83112
1.79819
1.79903
1.75624
1.8108
1.79003
1.70931
1.72864
1.72088
1.76225
1.7228
1.69332
1.67451
1.62419
1.56317
1.53938
1.50085
1.48936
1.46155
1.41644
1.42883
1.38035
1.35746
1.51693
1.58144
1.62991
1.60563
1.57737
1.56613
1.51997
1.50998
1.48141
1.46131
1.44693
1.41286
1.41551
