atr
0.0
0.005
0.01036
0.01747
0.01908
0.02058
0.02482
0.02591
0.04048
0.04688
0.04924
0.0593
0.06221
0.06919
0.07068
0.07134
0.07482
0.07447
0.07273
0.07467
0.07505
0.07755
0.08058
0.0834
0.09173
0.09518
0.09123
0.08757
0.0906
0.09413
0.09527
0.09275
0.09541
0.09145
0.09135
0.09054
0.09264
0.09388
0.09718
0.11523
0.13343
0.1339
0.13362
0.13408
0.13379
0.1378
0.13582
0.1304
0.12751
0.12698
0.12862
0.12586
0.12402
0.12087
0.11724
0.11315
0.1115
0.11282
0.10976
0.10763
0.10352
0.10327
0.10018
0.09588
0.09403
0.09017
0.08801
0.0853
0.08278
0.08044
0.07683
0.0792
0.08283
0.0912
0.09183
0.08884
0.08535
0.08211
0.08268
0.08106
0.07741
0.07545
0.07578
0.07679
0.07559
0.07162
0.07151
0.07068
0.06849
0.08289
0.08339
0.08101
0.07879
0.07674
0.07554
0.07372
0.07345
0.07535
0.07997
0.07997
0.07997
0.08069
0.07921
0.07998
0.07712
0.08304
0.08568
0.08385
0.08643
0.08383
0.08213
0.0834
0.08459
0.08212
0.07911
0.07775
0.07648
0.09387
0.09645
0.09528
0.09419
0.10174
0.10019
0.09661
0.09399
0.09228
0.0964
0.09523
0.09271
0.09895
0.10188
0.10032
0.10029
0.09956
0.09888
0.1011
0.10316
0.09937
0.09584
0.09542
0.09432
0.11187
0.12531
0.12707
0.13371
0.1363
0.13442
0.13125
0.13045
0.12756
0.13059
0.1284
0.14209
0.14551
0.15012
0.15011
0.1501
0.17081
0.17504
0.17325
0.17159
0.17862
0.17443
0.18697
0.19076
0.18928
0.18433
0.18473
0.19868
0.19592
0.18978
0.18837
0.19634
0.2016
0.19506
0.1947
0.19508
0.20329
0.20162
0.20151
0.20783
0.21441
0.21052
0.20549
0.2001
0.19437
0.19406
0.18806
0.18034
0.1746
0.16999
0.16642
0.17667
0.19334
0.2031
0.20074
0.19783
0.19512
0.1919
0.18748
0.18337
0.1817
0.17587
0.17902
0.17695
0.17717
0.19094
0.20302
0.20351
0.19898
0.19262
0.18886
0.18966
0.17968
0.17256
0.16809
0.16966
0.17397
0.17297
0.16919
0.17282
0.17262
0.16814
0.1647
0.16365
0.15768
0.15284
0.15621
0.15363
0.15051
0.16476
0.16799
0.16885
0.16465
0.16074
0.15426
0.1511
0.15173
0.15161
0.15078
0.1543
0.15685
0.15993
0.16208
0.16264
0.16531
0.16636
0.16305
0.15712
0.16732
0.16394
0.15795
0.15809
0.15537
0.15356
0.15973
0.1619
0.16248
0.15873
0.15882
0.15462
0.15214
0.15128
0.14976
0.15692
0.16642
0.17168
0.1737
0.18987
0.19488
0.19238
0.19221
0.19348
0.20109
0.19816
0.20829
0.20341
0.2346
0.23498
0.22534
0.21782
0.2094
0.20587
0.20902
0.20124
0.19186
0.18959
0.18819
0.19046
0.19114
0.19892
0.19399
0.18942
0.18161
0.18006
0.1822
0.18062
0.17414
0.16885
0.19964
0.20967
0.21969
0.22472
0.22509
0.22544
0.21791
0.2302
0.26305
0.27783
0.26798
0.27241
0.27581
0.28111
0.28175
0.28091
0.2887
0.28736
0.27755
0.26416
0.25457
0.25639
0.25236
0.26148
0.27137
0.26556
0.26516
0.26337
0.25384
0.24642
0.23668
0.22977
0.22693
0.22929
0.22292
0.21771
0.21144
0.20563
0.19808
0.19036
0.18391
0.17863
0.17087
0.16652
0.17105
0.18027
0.18667
0.18906
0.18627
0.1901
0.18438
0.18264
0.18959
0.19248
0.1873
0.18678
0.18773
0.18217
0.17988
0.17417
0.17316
0.17508
0.17757
0.17774
0.17219
0.16989
0.16561
0.20093
0.23157
0.22718
0.22595
0.23267
0.22748
0.22123
0.21757
0.21774
0.21862
0.21372
0.20274
0.19611
0.19568
0.19599
0.19627
0.19011
0.1851
0.19045
0.19042
0.18682
0.18419
0.19103
0.18953
0.19171
0.1873
0.18606
0.18063
0.17487
0.17595
0.17195
0.16824
0.16623
0.16792
0.16307
0.16071
0.15995
0.15781
0.15939
0.15586
0.15259
0.14812
0.14539
0.14787
0.14302
0.13852
0.13577
0.13393
0.1315
0.12997
0.13283
0.13477
0.13157
0.1336
0.13049
0.13117
0.12823
0.12478
0.12301
0.11994
0.1228
0.12689
0.12425
0.12609
0.12423
0.12035
0.11747
0.11551
0.11154
0.11072
0.10781
0.14654
0.16036
0.16533
0.16638
0.16307
0.17428
0.1704
0.17394
0.1708
0.1686
0.17013
0.17869
0.18022
0.1752
0.1734
0.16887
0.16467
0.16219
0.16275
0.17112
0.1739
0.17934
0.18081
0.17933
0.17866
0.17661
0.17328
0.16733
0.16467
0.17291
0.16913
0.16919
0.17568
0.1767
0.18051
0.17976
0.17334
0.17239
0.19008
0.19436
0.18905
0.18411
0.18596
0.18839
0.18922
0.18714
0.18448
0.18059
0.17912
0.17133
0.17623
0.17222
0.17277
0.16757
0.1656
0.16449
0.16703
0.16367
0.16555
0.16872
0.1681
0.16609
0.16709
0.16301
0.15851
0.15147
0.15065
0.14703
0.14439
0.14122
0.13542
0.1336
0.12977
0.12407
0.1295
0.12953
0.12957
0.12531
0.11993
0.12065
0.11703
0.12796
0.12953
0.12742
0.13118
0.12681
0.12561
0.12592
0.12193
0.13393
0.14437
0.15191
0.15535
0.15782
0.15726
0.15032
0.15101
0.14736
0.14112
0.14033
0.13673
0.13554
0.12943
0.12518
0.1241
0.14095
0.14017
0.14658
0.15111
0.15103
0.15025
0.15166
0.14868
0.14878
0.15172
0.1516
0.15577
0.15536
0.15783
0.16156
0.15859
0.16298
0.16348
0.16109
0.15744
0.15191
0.14891
0.14685
0.14707
0.15871
0.18737
0.19256
0.19881
0.20532
0.20137
0.21484
0.21664
0.23188
0.23889
0.24183
0.23598
0.23912
0.2449
0.24312
0.24219
0.23632
0.23086
0.23295
0.24416
0.24101
0.23879
0.23245
0.23299
0.22635
0.22375
0.21777
0.21221
0.21134
0.21125
0.20544
0.19863
0.20372
0.21274
0.21826
0.21481
0.21019
0.21231
0.20786
0.20016
0.19658
0.19754
0.21271
0.23252
0.28162
0.28436
0.29048
0.28473
0.28368
0.27985
0.27271
0.26252
0.25734
0.24824
0.23908
0.23272
0.22324
0.2173
0.2282
0.22333
0.21809
0.22466
0.22433
0.22116
0.22393
0.22294
0.22416
0.22172
0.21802
0.22316
0.2158
0.22538
0.24785
0.26944
0.26948
0.30451
0.30848
0.30073
0.30282
0.29405
0.32019
0.33589
0.35332
0.36451
0.36205
0.36547
0.35937
0.35156
0.34573
0.34532
0.35066
0.3499
0.36276
0.35685
0.34493
0.33458
0.32639
0.33379
0.34638
0.33807
0.34463
0.33359
0.32262
0.31386
0.31358
0.30547
0.30722
0.29885
0.2925
0.29018
0.28303
0.27067
0.26205
0.25119
0.2461
0.24352
0.2397
0.23258
0.22954
0.22243
0.23297
0.22419
0.21674
0.2084
0.19995
0.19567
0.19097
0.18662
0.18543
0.18576
0.19249
0.20374
0.21276
0.20971
0.2033
0.19735
0.19468
0.19435
0.18689
0.17997
0.17926
0.17288
0.17411
0.18024
0.17594
0.16766
0.16854
0.16436
0.16905
0.16483
0.16234
0.16575
0.16819
0.16404
0.17089
0.17511
0.17546
0.17436
0.17976
0.21049
0.21188
0.21318
0.20938
0.21228
0.21783
0.21513
0.22119
0.22468
0.21363
0.22551
0.22869
0.22021
0.22234
0.2186
0.21299
0.20992
0.20278
0.20544
0.20505
