atr
0.0
0.06929
0.16362
0.26194
0.28894
0.31687
0.36995
0.43281
0.64118
0.6761
0.69209
0.7098
0.72481
0.80661
0.81828
0.82483
1.0002
1.03662
1.039
1.06336
1.07526
1.06489
1.07025
1.11381
1.11353
1.11328
1.10805
1.07104
1.0374
1.20687
1.22495
1.19745
1.21835
1.19204
1.19118
1.22681
1.28847
1.36072
1.42495
1.64388
1.76504
1.72182
1.7474
1.7333
1.70521
1.75769
1.76215
1.71271
1.67751
1.71912
1.69347
1.64465
1.60575
1.57033
1.52531
1.48779
1.48009
1.52794
1.49094
1.46659
1.44469
1.42221
1.40277
1.35543
1.32361
1.28264
1.25388
1.21432
1.19829
1.16199
1.13542
1.20574
1.21676
1.17914
1.21348
1.18466
1.1479
1.12234
1.09503
1.0561
1.01495
0.98102
0.96524
0.94986
0.95987
0.92845
0.91856
0.92367
0.90555
1.20015
1.30085
1.28508
1.24614
1.22071
1.18708
1.16229
1.1407
1.09779
1.13224
1.11779
1.08152
1.14141
1.11488
1.08596
1.05554
1.25871
1.31309
1.2693
1.27363
1.25552
1.22512
1.2419
1.22176
1.18378
1.1528
1.1226
1.08455
1.27709
1.31944
1.31662
1.30758
1.29346
1.2725
1.23661
1.18828
1.18483
1.4302
1.4759
1.44262
1.44458
1.45282
1.53048
1.62901
1.58623
1.6015
1.74353
1.81542
1.77718
1.74452
1.69706
1.6787
1.68736
1.66541
1.75359
1.81619
1.89075
1.88284
1.84621
1.78719
1.74168
1.83585
1.80043
1.76397
1.85583
1.85898
1.87191
1.82678
1.79486
1.86952
1.86884
1.85321
1.86726
1.85603
1.81488
1.82311
1.81646
1.77242
1.75296
1.76204
1.76618
1.79431
1.77257
1.95882
1.9289
1.87112
1.88961
1.8575
1.82553
1.92228
1.93641
2.04238
2.24649
2.27031
2.23315
2.2065
2.1796
2.11392
2.12864
2.20445
2.17627
2.13368
2.07199
2.08328
2.03233
2.06931
2.00007
1.94364
1.88766
1.93426
1.90895
1.84689
1.81139
1.79987
1.8313
1.80121
1.8647
2.03293
2.20344
2.17748
2.1348
2.05731
2.07251
2.08233
2.01216
1.95986
1.9113
1.88549
1.83939
1.79157
1.74718
1.93381
1.96996
1.89639
1.88737
1.92541
1.85931
1.83293
1.82986
1.80559
1.76519
1.76268
1.75248
1.75088
1.71582
1.66111
1.60604
1.55989
1.52061
1.52985
1.56344
1.50962
1.49107
1.43528
1.41205
1.39833
1.36416
1.31458
1.29211
1.23625
1.34294
1.31488
1.29381
1.26783
1.24727
1.29318
1.26295
1.27631
1.25515
1.21121
1.22755
1.20558
1.15733
1.1368
1.14417
1.13316
1.11794
1.09665
1.08618
1.08217
1.05915
1.0385
1.01146
1.0135
1.01968
1.00256
0.99809
1.02037
1.48177
1.47379
1.41923
1.42429
1.37041
1.31895
1.37117
1.32037
1.29392
1.34292
1.46486
1.52022
1.49378
1.44637
1.40234
1.36146
1.34278
1.35187
1.32959
1.37319
1.37011
1.34582
1.35326
1.41445
1.39842
1.40568
1.43884
1.39964
1.36252
1.49734
1.68396
1.69368
1.67842
1.62924
1.61001
1.57358
1.58975
1.54191
1.51106
1.53742
1.48903
1.46196
1.41467
1.37005
1.31648
1.30244
1.42084
1.45792
1.4595
1.44168
1.44156
1.41502
1.44823
1.40479
1.38087
1.35224
1.36065
1.31418
1.28745
1.26835
1.26204
1.23332
1.23451
1.24133
1.20981
1.19839
1.17065
1.14418
1.17816
1.18044
1.18183
1.1517
1.11587
1.08473
1.14797
1.19454
1.16279
1.18045
1.1797
1.18115
1.16107
1.12599
1.11342
1.10675
1.09198
1.0847
1.04507
1.01971
1.02116
1.31394
1.59723
1.58814
1.6147
1.62794
1.57308
1.55501
1.50751
1.48983
1.45841
1.4521
1.40766
1.41354
1.39615
1.39214
1.37841
1.33995
1.31567
1.30527
1.32703
1.28867
1.28091
1.30727
1.30675
1.29413
1.25026
1.23667
1.22048
1.19688
1.22353
1.24328
1.22804
1.18961
1.1675
1.14839
1.13136
1.10198
1.06184
1.06528
1.03347
1.00251
0.98162
0.97364
0.9541
0.97309
0.95358
0.93261
0.89957
0.86603
0.83917
0.88494
0.92388
0.90146
0.8885
0.88717
0.89523
0.88057
0.86125
0.85259
0.81669
0.85478
0.89444
0.90269
0.89536
0.8764
0.85666
0.83904
0.82411
0.81025
0.79023
0.77593
0.80979
0.84409
0.80451
0.79348
0.77466
0.83361
0.83764
0.83638
0.81806
0.79606
0.79706
0.85084
0.84149
0.84496
0.84317
0.82866
0.82233
0.95716
1.04308
1.04857
1.04653
1.04178
1.01522
0.99199
0.98614
0.98427
0.95468
0.92792
0.92164
0.97509
0.98401
0.99087
0.99081
0.97575
0.95391
0.95006
0.9372
0.94597
1.15983
1.17913
1.15848
1.13001
1.12073
1.1221
1.09838
1.06493
1.04957
1.00746
1.04693
1.03215
1.29985
1.32558
1.31161
1.31078
1.30358
1.33047
1.38615
1.40142
1.38204
1.3476
1.31778
1.38222
1.43635
1.47804
1.48532
1.45494
1.45744
1.46763
1.48708
1.42729
1.38177
1.3495
1.33096
1.2709
1.3944
1.38409
1.36451
1.32705
1.30297
1.27847
1.23287
1.27623
1.27079
1.2693
1.28793
1.26807
1.26107
1.26956
1.34531
2.86564
2.88524
2.88344
2.88391
2.8322
2.70847
2.60429
2.68327
2.5609
2.45083
2.4472
2.38883
2.32034
2.27532
2.25065
2.17846
2.605
2.81179
3.5038
3.65853
3.61864
3.52873
3.51954
3.54814
3.43756
3.31916
3.24637
3.12377
3.01707
2.98585
2.93329
3.26663
3.41758
3.36775
3.25434
3.20332
3.28094
3.19873
3.12953
3.16528
3.15348
3.29537
3.39999
3.37713
3.56091
3.50156
3.61002
3.56073
3.70282
3.7419
3.69963
3.67751
3.5534
3.43673
3.31696
3.26861
3.19085
3.10508
3.04114
2.98606
2.93991
2.83992
2.83921
3.07927
2.99575
2.98177
3.25593
3.66836
3.79776
3.76435
4.32761
4.51993
4.52922
4.63784
4.758
4.57671
4.43338
4.26313
4.11934
3.94939
3.97872
4.18952
4.49384
4.44857
5.25153
5.12642
5.45667
5.44763
5.57137
5.44627
5.62225
5.50209
5.46194
5.34109
5.34887
5.24109
5.06601
4.87273
5.07467
5.56077
5.45
5.45286
5.43337
5.2917
5.27229
5.4607
5.48993
5.32351
5.13826
5.03767
4.93069
4.94636
5.10805
5.34104
5.4374
5.66187
5.51816
5.37401
5.13158
5.05147
5.58422
6.00535
5.93211
5.8591
5.88488
5.75024
5.61023
5.59593
5.43979
5.33623
5.21579
5.47323
5.67371
5.62988
5.68631
5.56872
5.55524
5.56701
5.88151
5.72426
5.5661
5.45138
5.35485
5.31307
5.16643
5.03097
5.03875
4.96242
4.7351
4.55545
4.40435
4.46689
4.51426
4.3861
4.35995
4.44924
4.36429
4.29684
4.15564
4.05738
4.26757
4.14845
4.01499
3.92392
3.83364
3.65338
3.52171
3.43802
3.36173
3.53232
3.58073
3.53139
3.51629
3.41656
3.35394
3.26509
3.39973
3.36046
3.26757
3.17203
3.09617
3.01144
2.94848
3.05645
2.98027
2.9274
3.03973
3.04046
3.22543
3.37575
3.77177
3.86093
3.89158
3.88647
3.846
3.967
3.88079
3.89645
3.94527
3.7749
3.96383
3.89642
3.95524
3.88844
4.11784
4.19156
4.17859
4.36298
4.42705
4.48441
4.56338
4.44956
4.32245
4.26013
4.09655
4.16609
4.18779
4.18009
4.18652
