atr
0.0
5e-05
7e-05
0.0001
0.00012
0.00019
0.00031
0.00039
0.00045
0.00053
0.00062
0.00068
0.00072
0.00079
0.0009
0.00098
0.001
0.00099
0.00098
0.00096
0.00093
0.00089
0.00088
0.00084
0.00083
0.00081
0.00079
0.00076
0.00073
0.00073
0.00073
0.0008
0.00081
0.00082
0.00085
0.00088
0.00117
0.00133
0.00136
0.00133
0.00132
0.00142
0.00136
0.00131
0.00125
0.00121
0.00119
0.00119
0.00115
0.00112
0.00111
0.00109
0.00105
0.00102
0.001
0.00103
0.00111
0.00109
0.00109
0.00109
0.0011
0.00111
0.00107
0.00107
0.00104
0.001
0.00095
0.0009
0.00088
0.00085
0.00083
0.00084
0.00081
0.0008
0.00081
0.00079
0.00077
0.00076
0.00077
0.00082
0.00092
0.00108
0.00115
0.00113
0.00112
0.00113
0.00116
0.00124
0.00127
0.00128
0.00126
0.00121
0.00117
0.00112
0.0011
0.00105
0.00102
0.001
0.00098
0.00095
0.00093
0.00092
0.00094
0.00094
0.001
0.00105
0.00107
0.00108
0.00108
0.00117
0.00122
0.00131
0.0013
0.00128
0.00124
0.00132
0.00133
0.00129
0.00124
0.00119
0.00115
0.00111
0.00111
0.00108
0.00102
0.00098
0.00101
0.00103
0.00115
0.00117
0.00119
0.00122
0.00123
0.00133
0.00138
0.00139
0.00146
0.00141
0.00138
0.00133
0.0013
0.00126
0.00122
0.00117
0.00114
0.00114
0.00111
0.00106
0.00103
0.00101
0.00097
0.00098
0.00103
0.00107
0.00118
0.00116
0.00114
0.00115
0.00114
0.00116
0.00115
0.00114
0.0011
0.00106
0.00102
0.00099
0.00095
0.0009
0.00088
0.00089
0.00087
0.00084
0.00086
0.00084
0.00082
0.00079
0.00077
0.00081
0.0009
0.00093
0.00105
0.00107
0.00111
0.00117
0.00122
0.00121
0.00125
0.00122
0.00117
0.00113
0.00109
0.00104
0.001
0.00096
0.00094
0.00091
0.0009
0.00091
0.00089
0.00088
0.00088
0.00091
0.00097
0.00098
0.00101
0.00101
0.00102
0.00136
0.00151
0.00155
0.00156
0.00155
0.00156
0.00151
0.00149
0.00143
0.00139
0.00132
0.00126
0.00122
0.00118
0.00115
0.00108
0.00103
0.00101
0.00101
0.00104
0.0011
0.00115
0.00113
0.0011
0.00121
0.00121
0.00123
0.00121
0.00119
0.00118
0.00115
0.00114
0.00109
0.00103
0.00098
0.00096
0.00094
0.00094
0.00092
0.00092
0.00089
0.00092
0.00095
0.00097
0.00103
0.00102
0.00114
0.00116
0.00116
0.0012
0.00121
0.00123
0.00118
0.00118
0.00114
0.0011
0.00105
0.00102
0.00097
0.00093
0.00091
0.00092
0.00088
0.00085
0.00082
0.0008
0.0008
0.00087
0.00096
0.00095
0.00102
0.00104
0.00106
0.0011
0.00112
0.0011
0.0011
0.00109
0.00107
0.00104
0.00101
0.001
0.00094
0.00091
0.00089
0.00086
0.00089
0.00089
0.00086
0.00082
0.00079
0.00078
0.00078
0.00087
0.00094
0.00098
0.001
0.00101
0.00112
0.00132
0.00137
0.00138
0.00135
0.0013
0.00129
0.00125
0.0012
0.00117
0.00113
0.00107
0.00106
0.00103
0.00102
0.00098
0.00095
0.00094
0.00094
0.00101
0.00104
0.00107
0.00113
0.00117
0.00125
0.00131
0.00139
0.00142
0.00138
0.00135
0.00131
0.00126
0.00121
0.00116
0.0011
0.00105
0.00101
0.00098
0.00095
0.00092
0.00088
0.00089
0.00089
0.00091
0.00105
0.00106
0.00105
0.00105
0.00106
0.00118
0.00121
0.00125
0.00122
0.0012
0.00117
0.00113
0.00111
0.00112
0.00107
0.00103
0.001
0.001
0.00099
0.00097
0.00093
0.00091
0.00092
0.00092
0.00099
0.00097
0.00098
0.00114
0.00127
0.00142
0.00157
0.00166
0.00162
0.00157
0.00153
0.00147
0.0014
0.0014
0.00135
0.00129
0.00125
0.0012
0.00115
0.00111
0.00106
0.00104
0.00105
0.00108
0.00109
0.00112
0.00111
0.00113
0.00119
0.00125
0.00124
0.00121
0.00119
0.00114
0.00108
0.00104
0.00102
0.00098
0.00096
0.00094
0.00089
0.0009
0.00089
0.00085
0.00085
0.00082
0.00082
0.00085
0.001
0.00106
0.00112
0.00109
0.00108
0.00111
0.00126
0.00128
0.00124
0.0012
0.00114
0.00114
0.00111
0.00107
0.00104
0.001
0.00097
0.00097
0.00095
0.00091
0.00089
0.00086
0.00082
0.00086
0.00089
0.00092
0.00094
0.00096
0.001
0.00108
0.00118
0.00125
0.00126
0.00124
0.0012
0.00121
0.00115
0.00112
0.00109
0.00106
0.00102
0.00103
0.00102
0.001
0.00098
0.00093
0.0009
0.00096
0.00095
0.00109
0.00112
0.00116
0.00117
0.00123
0.00128
0.00134
0.00134
0.00131
0.00128
0.00169
0.0017
0.00164
0.00156
0.00147
0.0014
0.00134
0.00131
0.00129
0.00125
0.0012
0.00115
0.00117
0.00121
0.00123
0.0012
0.00117
0.00114
0.00116
0.00114
0.00115
0.00113
0.00111
0.00108
0.00105
0.00101
0.00097
0.00093
0.0009
0.00087
0.00088
0.00086
0.00084
0.00082
0.00079
0.00076
0.00079
0.00081
0.00086
0.00089
0.00096
0.00105
0.00112
0.00113
0.00127
0.00125
0.0012
0.00117
0.00115
0.00113
0.00117
