atr
0.0
4e-05
4e-05
5e-05
5e-05
5e-05
0.00013
0.00016
0.00017
0.00024
0.00031
0.00037
0.0004
0.0004
0.00039
0.00036
0.00036
0.00038
0.00037
0.00039
0.00039
0.00038
0.00036
0.00034
0.00033
0.00033
0.00034
0.00033
0.00033
0.00033
0.00032
0.0003
0.00034
0.00034
0.00039
0.00041
0.00063
0.00067
0.00064
0.00065
0.00063
0.00076
0.00075
0.00071
0.00067
0.00067
0.00063
0.00061
0.00059
0.00059
0.00058
0.00054
0.00054
0.00053
0.00051
0.00057
0.0006
0.00057
0.0006
0.00059
0.00057
0.00053
0.00051
0.00048
0.00048
0.00047
0.00045
0.00043
0.00041
0.00038
0.00039
0.00041
0.00039
0.00039
0.00041
0.00042
0.00042
0.00041
0.00044
0.0005
0.00048
0.00046
0.00047
0.00048
0.00049
0.0005
0.00048
0.00052
0.00049
0.00047
0.00051
0.0005
0.00049
0.00048
0.00046
0.00043
0.00044
0.00041
0.00041
0.00039
0.0004
0.00038
0.00043
0.0004
0.0004
0.00042
0.00043
0.00041
0.00042
0.00049
0.00048
0.00045
0.00045
0.00044
0.00044
0.00055
0.00052
0.00049
0.00049
0.00049
0.00047
0.00045
0.00044
0.00044
0.00042
0.00042
0.00047
0.00044
0.00057
0.00057
0.00062
0.00063
0.00062
0.00076
0.0008
0.00081
0.00081
0.00078
0.00074
0.00071
0.00072
0.00067
0.00065
0.00064
0.00061
0.00059
0.00057
0.00053
0.00051
0.00048
0.00048
0.00045
0.00053
0.00054
0.00067
0.00067
0.00067
0.00072
0.00068
0.0007
0.00066
0.00068
0.00067
0.00065
0.00063
0.0006
0.00056
0.00052
0.00051
0.00048
0.00045
0.00045
0.00045
0.00044
0.00042
0.0004
0.00038
0.00036
0.00046
0.00044
0.00043
0.00043
0.00044
0.00055
0.00063
0.00065
0.00061
0.00059
0.00056
0.00053
0.00052
0.0005
0.0005
0.00049
0.00046
0.00047
0.00046
0.00047
0.00045
0.00042
0.0004
0.00043
0.00048
0.00045
0.00042
0.00043
0.0004
0.00045
0.00061
0.00065
0.00063
0.00061
0.00057
0.00055
0.00053
0.00053
0.00053
0.00052
0.00049
0.00048
0.00049
0.00048
0.00045
0.00043
0.00044
0.00047
0.00047
0.00055
0.00058
0.00059
0.0006
0.00074
0.00071
0.0007
0.0007
0.00072
0.00069
0.0007
0.00071
0.00068
0.00066
0.00062
0.0006
0.00058
0.00054
0.00052
0.00054
0.00053
0.00058
0.00057
0.00055
0.00061
0.00058
0.00054
0.00053
0.00054
0.00061
0.00061
0.00058
0.00055
0.00055
0.00053
0.00053
0.0005
0.00048
0.00046
0.00043
0.00044
0.00042
0.00041
0.00041
0.00039
0.00039
0.00037
0.00038
0.00048
0.00047
0.00044
0.00043
0.00048
0.00053
0.00055
0.00053
0.00053
0.00055
0.00054
0.0005
0.0005
0.00052
0.0005
0.00049
0.00046
0.00046
0.00043
0.00044
0.00043
0.00041
0.00041
0.0004
0.00038
0.00037
0.00036
0.00039
0.00039
0.00039
0.00048
0.00071
0.00068
0.00066
0.00063
0.0006
0.00061
0.00062
0.0006
0.00059
0.00057
0.00053
0.00055
0.00053
0.00053
0.0005
0.00046
0.00043
0.00041
0.00047
0.00052
0.00059
0.00055
0.00058
0.00055
0.00053
0.00059
0.00062
0.00062
0.00061
0.00062
0.00059
0.00056
0.00054
0.00052
0.00048
0.00046
0.00043
0.0004
0.00041
0.00038
0.00038
0.00036
0.00034
0.00047
0.00044
0.00044
0.00046
0.00044
0.00057
0.00061
0.00067
0.00062
0.00063
0.00062
0.00061
0.00056
0.00057
0.00054
0.00052
0.00049
0.00052
0.0005
0.00051
0.00051
0.00048
0.0005
0.00052
0.00051
0.0005
0.00048
0.0006
0.00061
0.00078
0.00074
0.00069
0.00066
0.00064
0.00066
0.00065
0.00061
0.00063
0.00063
0.0006
0.00061
0.00059
0.00055
0.00052
0.00049
0.00048
0.00052
0.00054
0.00056
0.00054
0.00051
0.00051
0.00061
0.00057
0.00054
0.00053
0.00056
0.00056
0.00053
0.00053
0.00052
0.00051
0.00049
0.00047
0.00044
0.00041
0.00043
0.00043
0.00044
0.00042
0.00044
0.00041
0.00058
0.00056
0.00063
0.0006
0.0006
0.00056
0.00073
0.00076
0.00075
0.00072
0.00068
0.00064
0.00063
0.0006
0.0006
0.00057
0.00057
0.00058
0.00055
0.00052
0.00049
0.00046
0.00043
0.0004
0.00037
0.00035
0.00038
0.00041
0.00046
0.00058
0.00059
0.00065
0.00069
0.00069
0.00067
0.00063
0.00059
0.00056
0.00056
0.00053
0.00052
0.00051
0.00054
0.00053
0.00051
0.00049
0.00045
0.00043
0.00046
0.0006
0.00055
0.00054
0.00056
0.00053
0.00053
0.00062
0.00066
0.00066
0.00064
0.00082
0.00083
0.00079
0.00075
0.0007
0.00067
0.00063
0.00063
0.00064
0.00062
0.00061
0.00059
0.00061
0.00069
0.00072
0.00067
0.00067
0.00063
0.00068
0.00064
0.00063
0.00062
0.00058
0.00056
0.00055
0.00052
0.00049
0.00048
0.00047
0.00046
0.00044
0.00043
0.00041
0.0004
0.00039
0.00038
0.0004
0.00044
0.0005
0.00048
0.00049
0.00048
0.00054
0.00056
0.00055
0.00056
0.00052
0.00051
0.00048
0.00051
0.00058
