atr
0.0
3.04857
5.1801
9.86795
12.25024
15.57237
18.09291
20.43842
22.33282
24.80762
25.42993
26.19208
33.59836
36.19062
38.01486
38.40094
41.37087
41.76795
41.3331
41.85788
52.21803
53.30246
66.813
74.8935
81.25825
81.75623
79.73935
77.18369
75.09842
72.78925
71.75002
71.67145
71.08206
68.18334
71.17024
72.65808
73.69036
72.33105
80.20455
82.27208
85.73265
99.7246
118.37784
120.59014
122.96013
124.13012
121.30154
120.78429
118.22255
115.95237
111.36077
107.30715
102.51378
98.64351
95.64326
100.8916
101.60148
100.54352
103.21898
103.50405
108.91377
109.91278
112.38615
115.49429
119.23755
121.00916
118.05636
113.44448
115.1313
113.14906
109.70913
106.41419
102.84818
99.78402
98.47945
94.90806
91.56677
89.22772
85.86502
81.48538
79.52285
82.35622
82.54506
94.50541
92.63574
90.83104
86.84097
82.70233
83.04502
80.47038
77.38535
76.85711
89.96803
88.55674
89.39912
86.50704
84.83939
82.27301
80.03208
78.1655
76.18368
76.52627
74.48868
71.93592
70.34693
71.07215
69.08056
69.20052
67.1862
65.40504
63.01754
61.44486
59.25808
66.63108
64.78029
62.36741
63.11974
63.85547
63.43865
61.71303
65.15996
64.68853
63.56007
60.89078
65.02715
66.64664
71.77545
78.35006
78.11077
80.785
80.47536
78.15569
77.29885
81.06179
79.62809
78.79537
80.57356
80.95974
80.7519
80.9839
82.79505
83.03041
80.95395
83.19152
87.93856
87.64723
90.06029
88.22955
89.04244
86.57798
83.90098
84.33663
83.0183
80.27485
80.20236
78.75576
84.89392
83.3215
83.93068
82.68349
81.98895
80.06117
79.73037
79.62463
89.38644
93.14455
91.46209
88.76336
87.04598
83.25698
86.09506
89.08469
86.49579
86.67466
90.34076
87.69427
86.67968
84.59042
87.59682
86.14276
88.30756
89.85702
87.28866
84.33162
84.26221
82.34063
79.86487
79.97309
78.1793
77.45506
76.75542
75.30574
73.38248
72.78516
69.94336
69.12526
68.67632
66.40586
63.90259
63.13026
61.54024
59.93094
58.60944
67.23663
76.77472
76.0301
75.05438
75.62192
72.82107
70.64457
70.18781
67.88583
67.96612
66.53211
64.07839
62.28708
61.03443
59.43769
59.99999
62.46642
64.76025
76.46166
75.92868
76.79306
77.49642
77.73453
76.57492
74.31528
72.46776
76.00578
76.29108
79.77172
82.99588
81.0776
80.62349
81.5861
78.98495
77.19174
78.36447
76.79487
76.56595
74.11124
71.409
68.31336
66.59812
64.42111
61.5146
61.6207
59.84637
59.56734
57.59682
57.44633
55.58731
54.29536
53.91926
53.03646
54.89099
55.02235
54.68147
53.82851
53.07147
57.13779
55.96581
54.87539
54.18858
53.2344
53.90123
51.86614
51.30356
50.32973
48.68546
47.53222
45.80134
44.55411
43.49953
43.57813
46.35184
46.05528
50.13061
52.062
57.67328
63.69662
62.37615
61.67357
63.40117
62.24823
71.01621
76.65791
94.66735
94.14611
92.47496
90.11317
89.03223
85.20493
83.28601
81.65058
78.50268
76.58177
73.86879
78.09102
80.83237
83.81649
89.75817
91.35259
90.04169
86.59157
83.04574
80.93747
79.2498
80.28695
80.7286
80.28084
79.4465
77.90746
74.28979
74.96694
72.85931
70.59793
67.52379
68.1478
67.8151
69.66831
68.707
68.71365
67.2741
66.28309
68.62001
68.26216
68.92843
69.09283
67.72334
67.55667
70.40977
68.63121
69.07041
67.77038
67.11821
66.32477
64.773
63.10636
61.87019
59.75803
58.11246
56.76228
56.18712
54.66875
58.52741
57.91831
61.16486
60.91594
60.97695
60.58645
60.52242
58.95796
57.00239
54.71651
53.55104
52.78311
51.83003
56.09789
63.01804
66.80246
64.90014
66.06513
65.4412
62.84754
62.82986
79.31415
93.37386
92.41858
96.30297
98.42347
101.89322
103.18656
99.74538
97.27571
98.37959
94.07033
91.99388
92.79717
93.38309
90.34787
91.56659
94.02612
96.11354
93.94757
90.60561
87.65378
86.58994
84.25208
81.63551
78.93725
76.77174
76.36018
72.97731
72.28679
69.59702
73.69866
72.93233
70.97788
67.9416
65.66006
62.86148
62.45638
60.68092
59.44085
56.70436
62.16262
61.94244
59.71369
58.00771
56.01288
53.83624
52.79151
50.9314
48.90345
47.2032
44.97297
44.60062
45.76629
48.30155
54.81358
55.14118
53.79824
57.09765
55.90354
53.67114
52.58892
51.04685
49.61422
52.08606
52.12848
54.55859
53.62798
52.16241
49.96795
48.0931
53.65716
55.13808
54.14179
52.40452
52.44705
50.75798
49.54955
47.7803
49.86885
50.42393
48.98151
48.91497
49.10961
48.14321
47.33298
46.3092
48.25568
47.53028
50.10812
52.98039
51.73465
50.9836
49.47263
50.15102
48.74952
47.18669
46.79764
47.16567
46.51098
52.58591
57.82477
64.76657
63.38539
63.66358
62.12761
62.10278
72.73186
79.12102
82.50023
84.91736
82.69683
80.83206
80.15263
81.99529
79.49563
77.36166
74.19797
71.59811
69.92468
67.27006
64.16934
62.9351
65.52188
64.3696
64.46892
64.00685
64.0635
64.09754
62.77843
60.96926
65.82074
63.74497
61.73962
59.62321
58.57727
56.32247
57.16657
56.07182
54.64098
53.88376
51.92564
50.39166
51.34583
51.70756
51.53487
50.38738
49.60828
48.14198
46.82898
46.31048
53.93116
55.93608
54.6485
55.12218
55.91345
55.05463
53.49859
51.93369
51.41485
49.82737
48.42684
48.05635
49.65375
50.24134
49.70268
49.58248
48.70159
51.40219
50.88418
51.02031
50.73314
50.10078
52.56715
53.9295
57.24453
89.17849
89.88789
91.68161
88.69292
86.497
82.81721
80.08741
80.44546
78.84221
83.46419
81.84961
80.37392
78.79436
76.51762
74.42207
72.90692
70.68072
70.55352
69.86327
69.98375
70.49848
74.74859
74.55226
72.3571
75.94088
73.62867
71.36377
67.69493
65.71243
62.98583
60.61827
60.19482
59.61734
57.07038
58.77464
57.92788
56.9916
56.27792
56.2545
55.37917
56.26638
54.66735
53.23825
55.54266
53.99176
53.25806
53.84106
63.70955
65.59101
63.54166
60.67154
59.02
56.07928
55.32934
53.88367
52.30484
51.80663
50.3183
49.06271
46.9618
45.53667
44.18905
42.93841
41.38495
40.1196
40.65891
44.32613
45.95855
45.79365
47.46625
49.36152
57.22355
56.9883
55.77485
56.36093
55.85086
54.78652
54.37891
54.74184
56.90314
58.71292
65.10985
64.35915
61.89564
60.26166
61.00226
62.42567
62.87169
62.43443
61.54125
60.78117
59.35394
58.93509
61.79687
62.05138
60.78271
58.76537
57.36427
57.25825
55.53409
53.62094
54.68016
54.90872
53.77238
54.40578
54.92466
54.57218
53.10131
53.01336
51.43455
51.2428
49.15117
47.61751
48.48912
47.78275
46.00541
46.37931
45.94365
46.99124
48.26258
47.15668
46.05549
44.10653
43.79463
42.98859
41.78155
41.58501
40.95465
40.63432
40.19115
47.31678
47.58559
47.3609
47.24584
52.30756
52.21131
51.12479
51.0223
61.08571
61.92101
66.81237
72.42649
74.24745
75.42835
100.76918
122.76853
126.24863
128.33944
135.27091
138.6087
141.04022
137.09878
135.35387
131.0293
132.6765
156.15532
164.88994
170.96923
180.28928
190.31791
186.07234
208.0536
219.70835
213.59918
213.94567
209.73526
203.03989
196.96132
194.70123
202.85757
201.48846
201.31571
203.1553
196.87992
193.31707
194.22442
189.31196
