atr
0.0
0.00643
0.01811
0.03039
0.03536
0.04212
0.0484
0.04994
0.05352
0.05541
0.05717
0.05665
0.06475
0.06727
0.06961
0.07035
0.08604
0.08703
0.08439
0.0855
0.0994
0.09944
0.11091
0.11656
0.12538
0.13071
0.13066
0.12704
0.12225
0.12066
0.12061
0.11771
0.11716
0.11379
0.11352
0.11756
0.1313
0.14121
0.15327
0.1566
0.15542
0.17574
0.20319
0.20439
0.20622
0.20863
0.20802
0.20744
0.20191
0.20392
0.19864
0.19588
0.18546
0.1815
0.18068
0.18563
0.1888
0.18674
0.18412
0.18454
0.18636
0.18447
0.18915
0.19279
0.1983
0.19771
0.19001
0.18573
0.18818
0.19045
0.18185
0.17528
0.17134
0.17053
0.16549
0.1651
0.16473
0.15939
0.15729
0.15106
0.15241
0.17224
0.18922
0.20785
0.20872
0.20881
0.20532
0.20066
0.19275
0.18827
0.18125
0.18116
0.19608
0.19779
0.1958
0.19325
0.19016
0.18872
0.18167
0.18226
0.17853
0.18435
0.17689
0.16854
0.16008
0.1565
0.15175
0.14877
0.14457
0.13924
0.13501
0.12965
0.12754
0.13985
0.13772
0.13503
0.13538
0.13214
0.13485
0.13093
0.13229
0.13141
0.13131
0.12836
0.13348
0.13466
0.14718
0.15453
0.15563
0.15737
0.15542
0.15074
0.14783
0.15799
0.16385
0.16571
0.17602
0.18345
0.18963
0.18537
0.1957
0.19958
0.19318
0.19867
0.20948
0.21952
0.23384
0.23999
0.24285
0.23907
0.24557
0.24088
0.23296
0.22418
0.22174
0.22233
0.23502
0.23038
0.25321
0.25441
0.25195
0.25181
0.25239
0.25222
0.26064
0.26988
0.2656
0.26377
0.25636
0.24448
0.2513
0.26763
0.2628
0.25903
0.26982
0.27054
0.26693
0.26144
0.26562
0.25665
0.25474
0.24941
0.24159
0.23576
0.22821
0.21976
0.20978
0.20337
0.19813
0.19112
0.19032
0.1853
0.18278
0.1833
0.17592
0.17478
0.17515
0.16764
0.16067
0.15776
0.15292
0.15129
0.14762
0.16279
0.18259
0.18098
0.17877
0.17885
0.17251
0.16661
0.16686
0.16637
0.16734
0.1661
0.15924
0.15286
0.15194
0.14966
0.15683
0.18063
0.19058
0.21483
0.21305
0.21641
0.21738
0.21756
0.21774
0.21361
0.2055
0.20939
0.20872
0.22238
0.23079
0.22859
0.22369
0.22057
0.2141
0.20523
0.207
0.20793
0.20665
0.19975
0.19262
0.18743
0.18262
0.181
0.17307
0.17285
0.16979
0.16695
0.16503
0.1661
0.1628
0.15975
0.15476
0.15371
0.15487
0.15381
0.15354
0.15257
0.15524
0.1563
0.15585
0.154
0.15015
0.14728
0.14604
0.1449
0.14383
0.13999
0.13427
0.12897
0.12476
0.1237
0.11915
0.11993
0.13636
0.13519
0.14054
0.14121
0.15041
0.16681
0.17275
0.1747
0.17579
0.17324
0.19229
0.19641
0.22881
0.22461
0.22
0.21142
0.21704
0.20796
0.21025
0.20952
0.20527
0.20346
0.24822
0.25691
0.26571
0.27458
0.27997
0.28569
0.27742
0.26261
0.25456
0.2471
0.23945
0.23449
0.23131
0.23193
0.23465
0.25146
0.24635
0.25947
0.2588
0.24817
0.23901
0.2648
0.27731
0.27393
0.27437
0.2712
0.27254
0.26522
0.27056
0.2648
0.25517
0.25338
0.24885
0.23822
0.24549
0.23867
0.24019
0.23589
0.23833
0.23916
0.24922
0.24071
0.23708
0.22586
0.2233
0.21592
0.21836
0.21347
0.21394
0.2108
0.22432
0.22115
0.21607
0.21635
0.21804
0.21604
0.21346
0.20679
0.20344
0.20391
0.19578
0.21536
0.23284
0.23763
0.2378
0.23582
0.22754
0.21772
0.25788
0.26875
0.28955
0.29458
0.29997
0.29783
0.2987
0.29665
0.28903
0.27767
0.2757
0.26243
0.25154
0.24643
0.24097
0.23305
0.22997
0.22712
0.22661
0.22042
0.23111
0.22888
0.22968
0.22613
0.21855
0.21365
0.21768
0.2207
0.21279
0.21617
0.21144
0.21348
0.21323
0.20871
0.20166
0.19654
0.18751
0.18697
0.1829
0.17626
0.17296
0.17703
0.18225
0.17994
0.18352
0.18327
0.17732
0.17465
0.17289
0.16769
0.16071
0.1578
0.15724
0.15601
0.15558
0.17376
0.17134
0.16625
0.17366
0.17054
0.16479
0.16087
0.15795
0.15596
0.16339
0.16815
0.17685
0.1735
0.17325
0.17445
0.17342
0.20889
0.22325
0.21445
0.2127
0.20965
0.20253
0.19878
0.19173
0.20589
0.2119
0.20748
0.20837
0.20563
0.20023
0.1945
0.18775
0.18719
0.18382
0.19212
0.19697
0.19219
0.18917
0.18423
0.18179
0.18023
0.17521
0.17056
0.17909
0.17558
0.17733
0.19752
0.21341
0.21174
0.20447
0.19986
0.19702
0.21937
0.22442
0.23982
0.2534
0.25102
0.24166
0.2494
0.27158
0.26075
0.26284
0.25264
0.24459
0.23855
0.23508
0.22544
0.22719
0.24025
0.23809
0.23965
0.23896
0.23547
0.23222
0.2242
0.22176
0.22949
0.22167
0.22155
0.21787
0.21088
0.2051
0.20259
0.19884
0.19535
0.19854
0.19436
0.19047
0.18973
0.18475
0.18298
0.18848
0.18287
0.17624
0.17222
0.16778
0.17722
0.18028
0.17669
0.17621
0.17505
0.17255
0.16594
0.16123
0.15614
0.1507
0.14565
0.14025
0.14166
0.1494
0.14658
0.14326
0.13874
0.14383
0.14213
0.1434
0.14245
0.14156
0.14716
0.14736
0.15112
0.18176
0.18663
0.19401
0.18658
0.18111
0.17461
0.16785
0.168
0.16386
0.16858
0.16368
0.15985
0.15415
0.14885
0.14679
0.14488
0.13881
0.13533
0.13352
0.12827
0.12768
0.13856
0.14652
0.14962
0.16036
0.15748
0.15552
0.14941
0.14517
0.14051
0.13476
0.13013
0.1337
0.13129
0.13334
0.13024
0.13237
0.1422
0.14347
0.15251
0.14947
0.14737
0.14327
0.14232
0.13644
0.13098
0.12948
0.13809
0.13823
0.13693
0.13143
0.12919
0.12424
0.12537
0.12141
0.11989
0.11632
0.11373
0.10989
0.1049
0.10098
0.10019
0.09875
0.0967
0.09408
0.09093
0.09158
0.09361
0.09192
0.09464
0.10002
0.11216
0.11344
0.11105
0.11597
0.11412
0.11311
0.11503
0.11753
0.11842
0.12925
0.13501
0.13537
0.13284
0.12836
0.1299
0.13205
0.13548
0.13223
0.12921
0.12427
0.12539
0.13215
0.13628
0.13726
0.1396
0.13106
0.12955
0.12673
0.12125
0.11687
0.11352
0.11756
0.11773
0.12218
0.12702
0.12867
0.12876
0.13028
0.12526
0.12345
0.11892
0.11614
0.11856
0.11652
0.11248
0.10873
0.10668
0.1062
0.11148
0.11708
0.11229
0.11141
0.10917
0.10709
0.10587
0.10402
0.10159
0.09862
0.09657
0.10039
0.10108
0.10029
0.10527
0.10989
0.11204
0.11404
0.11446
0.11629
0.12155
0.13001
0.14215
0.14414
0.14528
0.16061
0.17414
0.18313
0.19219
0.19489
0.20026
0.20953
0.20813
0.22326
0.22017
0.22945
0.23949
0.25238
0.2615
0.26782
0.2844
0.28266
0.3189
0.35183
0.35099
0.35378
0.34922
0.33499
0.3282
0.32619
0.33932
0.33651
0.32747
0.3298
0.32553
0.32227
0.32425
0.31681
