atr
0.0
0.01714
0.04092
0.04657
0.05253
0.06877
0.08672
0.09695
0.10074
0.12998
0.13426
0.17182
0.1774
0.19187
0.21531
0.2185
0.22432
0.22259
0.23812
0.29682
0.32848
0.33644
0.34598
0.36627
0.38439
0.39979
0.41052
0.39977
0.39264
0.38888
0.38325
0.3873
0.38892
0.42257
0.46667
0.55405
0.55591
0.56406
0.5852
0.59697
0.61218
0.59846
0.58
0.56285
0.55479
0.53159
0.51505
0.49898
0.51833
0.51774
0.50647
0.50387
0.54002
0.53216
0.53201
0.54115
0.5225
0.51946
0.53307
0.58428
0.68683
0.7142
0.6989
0.78184
0.79599
0.79699
0.78578
0.78036
0.74534
0.72853
0.70792
0.80307
0.84428
0.81326
0.81945
0.79235
0.7829
0.7584
0.73352
0.73684
0.75992
0.73921
0.71784
0.69728
0.67319
0.66082
0.77719
0.79025
0.77666
0.74118
0.73181
0.71382
0.69641
0.67095
0.66374
0.6449
0.64527
0.61703
0.59582
0.5754
0.56001
0.54787
0.53945
0.52735
0.51325
0.51088
0.50153
0.5157
0.57173
0.61446
0.59128
0.56762
0.59993
0.61494
0.63816
0.65472
0.66938
0.66014
0.65441
0.68767
0.66855
0.63865
0.62518
0.60981
0.60482
0.61305
0.61426
0.6611
0.79531
0.81493
0.81315
0.80435
0.78118
0.76753
0.7627
0.76108
0.77672
0.7491
0.73987
0.7156
0.71234
0.71432
0.71187
0.69102
0.67452
0.65491
0.6867
0.67194
0.6618
0.66453
0.68563
0.68094
0.66873
0.65811
0.64824
0.66337
0.73242
0.79724
0.78458
0.78783
0.75584
0.72399
0.70228
0.67569
0.65885
0.62536
0.62641
0.60881
0.59675
0.5927
0.6075
0.59911
0.59417
0.56745
0.56906
0.55913
0.56919
0.56496
0.55104
0.57168
0.58227
0.57354
0.62471
0.61438
0.60049
0.60331
0.63165
0.62725
0.61316
0.61222
0.63349
0.63467
0.66005
0.6579
0.67091
0.66441
0.65338
0.63886
0.62965
0.61896
0.60832
0.58844
0.57284
0.55192
0.54679
0.53844
0.52784
0.52585
0.54829
0.54198
0.52399
0.51227
0.49425
0.48895
0.48331
0.47879
0.48673
0.47911
0.49489
0.48597
0.46983
0.45984
0.44842
0.44139
0.44558
0.45232
0.4543
0.46685
0.45993
0.46279
0.48616
0.48287
0.50552
0.51798
0.53241
0.51867
0.50591
0.49406
0.47662
0.46901
0.47551
0.48583
0.49041
0.49324
0.48872
0.4881
0.48609
0.47494
0.46245
0.45656
0.44466
0.44147
0.43637
0.46805
0.46319
0.45939
0.45301
0.44922
0.43999
0.42571
0.4303
0.42028
0.42169
0.42728
0.46747
0.4748
0.49446
0.49057
0.50552
0.51799
0.50742
0.52117
0.52752
0.55198
0.56541
0.55574
0.59104
0.58954
0.59457
0.57282
0.56547
0.55223
0.55778
0.53722
0.52957
0.56031
0.556
0.54843
0.60783
0.65227
0.66211
0.77053
0.77978
0.78408
0.78664
0.80903
0.82338
0.83671
0.85838
1.05706
1.06013
1.12155
1.13072
1.14139
1.17914
1.15063
1.10987
1.09774
1.09862
1.08443
1.06483
1.03377
1.09421
1.07463
1.03501
1.0568
1.01488
0.98025
0.95309
0.92501
0.98965
1.0061
1.00638
0.98807
0.98249
0.97946
0.96593
0.96836
0.97348
1.07251
1.05305
1.02212
0.98982
0.95769
0.92357
1.01046
1.029
1.03121
1.02541
1.04574
1.05819
1.0426
1.02813
1.00826
1.01339
1.01386
0.99716
0.9895
0.94097
0.91304
0.94925
0.93645
0.90599
0.89985
0.88628
0.89012
0.86654
0.84036
0.82676
0.80914
0.85277
0.87614
0.87642
0.84382
0.81569
0.82957
0.80674
0.77769
0.76714
0.76877
0.73386
0.71001
0.71215
0.73129
0.72905
0.71055
0.71051
0.6869
0.67641
0.65809
0.63394
0.60652
0.60391
0.59292
0.63557
0.62231
0.62215
0.62985
0.62415
0.61528
0.62419
0.6196
0.61249
0.60588
0.62118
0.61109
0.60316
0.59436
0.58548
0.56723
0.56314
0.53792
0.52307
0.51713
0.50448
0.48845
0.47713
0.47876
0.49099
0.50449
0.50632
0.50515
0.51193
0.50322
0.50156
0.49788
0.49088
0.55368
0.56127
0.54832
0.54487
0.53452
0.51706
0.52655
0.51394
0.53009
0.54151
0.53712
0.53947
0.52379
0.50281
0.54546
0.56936
0.56798
0.55169
0.533
0.51564
0.51167
0.49012
0.48083
0.46505
0.44826
0.43767
0.43498
0.43605
0.44205
0.43048
0.42616
0.41429
0.40112
0.3889
0.37541
0.36002
0.35573
0.35032
0.33673
0.33054
0.32693
0.32572
0.31602
0.31059
0.29912
0.29061
0.29914
0.29634
0.29518
0.28981
0.28268
0.32463
0.35287
0.35695
0.36503
0.39895
0.39331
0.37879
0.36459
0.36069
0.40064
0.40988
0.45489
0.4624
0.46223
0.44493
0.451
0.4395
0.42382
0.41069
0.41493
0.43672
0.48695
0.52574
0.52962
0.55393
0.58937
0.6837
0.692
0.67615
0.66071
0.63851
0.61362
0.59908
0.61271
0.63681
0.6506
0.71913
0.69705
0.67869
0.65878
0.63816
0.61472
0.61795
0.61667
0.60905
0.5834
0.5853
0.57707
0.58228
0.58069
0.57849
0.55789
0.53732
0.52252
0.50876
0.49742
0.47904
0.47053
0.45264
0.43816
0.43972
0.42332
0.40308
0.40286
0.40408
0.39665
0.3926
0.40242
0.41939
0.42157
0.40575
0.38962
0.38608
0.38421
0.38106
0.38384
0.37071
0.36423
0.36535
0.3764
0.41237
0.40649
0.39817
0.41187
0.42031
0.41314
0.40649
0.39245
0.37371
0.35987
0.34774
0.36719
0.36881
0.37819
0.37117
0.37466
0.36933
0.36223
0.35493
0.35886
0.35894
0.35259
0.34455
0.33351
0.33326
0.33446
0.34914
0.33991
0.35278
0.34686
0.33709
0.3323
0.32785
0.32371
0.32131
0.31836
0.32704
0.32868
0.31664
0.3333
0.33164
0.32938
0.33442
0.33982
0.32912
0.3249
0.31741
0.30973
0.31404
0.30375
0.3042
0.29604
0.29846
0.29215
0.28271
0.27609
0.26922
0.27285
0.27265
0.26746
0.2605
0.27832
0.28129
0.28049
0.29974
0.29976
0.30692
0.30785
0.30301
0.31708
0.31229
0.30641
0.31166
0.31583
0.31827
0.31411
0.35453
0.36492
0.35671
0.34552
0.33798
0.34455
0.38137
0.38842
0.38853
0.38721
0.39098
0.37876
0.37171
0.3623
0.35714
0.3752
0.37269
0.36892
0.35543
0.34433
0.32973
0.34332
0.33451
0.33205
0.33976
0.33978
0.32836
0.32419
0.32747
0.32622
0.32506
0.34113
0.3489
0.3397
0.33972
0.32902
0.34052
0.33977
0.33193
0.34965
0.35396
0.35153
0.34928
0.3429
0.33484
0.32664
0.32759
0.35276
0.35828
0.35197
0.34612
0.3364
0.3388
0.33531
0.36065
0.35131
0.34265
0.37603
0.38631
0.38729
0.38391
0.40935
0.39654
0.40107
0.41314
0.4122
0.42204
0.41047
0.39758
0.38632
0.38873
0.38596
0.38982
0.39555
0.39872
0.40024
0.39594
0.38837
0.37849
0.37503
0.37252
0.37163
0.36723
0.36743
0.36404
0.36232
0.35287
0.36766
0.37212
0.36554
0.36086
0.35437
0.35691
0.35142
0.35703
0.35724
0.36101
