atr
0.0
4.08571
8.16959
12.38105
15.06383
16.60213
17.61555
20.48658
22.29183
23.82169
25.62015
28.39085
32.5515
35.10354
36.48186
37.07101
40.17451
40.1649
40.65241
40.66438
40.54835
38.91918
40.26781
39.77011
41.71725
41.59316
45.09936
45.01226
56.99139
56.212
58.834
57.13086
56.90723
55.16385
56.18429
54.53399
55.99513
54.40476
57.29799
55.40814
54.32399
54.3037
52.35201
50.74258
49.65311
47.69503
49.16967
52.47112
58.17033
69.90245
79.01156
77.89002
75.00145
72.4292
69.61283
68.25334
66.80953
64.78171
63.0223
65.36285
63.46979
62.04552
62.16941
64.16659
65.04755
65.40273
64.84253
62.25735
61.16754
59.97986
58.82558
59.5509
59.53798
60.57241
58.51152
57.39356
57.64473
58.41011
57.73796
58.03453
58.10064
65.80773
64.33432
69.87473
72.35296
71.94561
70.87664
72.43688
70.11996
67.3921
67.29981
64.77839
64.07851
62.48219
61.01275
59.61683
59.28706
59.11084
58.62435
57.01619
54.96146
55.17564
53.81738
52.93542
52.31361
50.77478
58.12515
58.11407
58.30806
58.18963
58.81894
59.17116
61.65108
60.35672
69.22052
70.22191
68.41249
67.3166
68.61113
71.28748
73.96408
75.46594
74.82837
75.12634
72.39517
69.71909
70.63058
71.49054
70.7855
68.99368
67.68342
66.57818
71.36973
82.3119
89.37033
88.27245
88.36942
87.57803
85.75674
83.60769
81.40928
80.02148
80.03209
82.72051
81.94262
80.28743
79.46904
77.61197
77.26968
77.10542
75.02575
73.26462
71.24215
68.79271
67.20466
68.28504
70.33682
68.57848
68.32287
67.29195
67.64753
64.95842
62.45853
60.65007
59.09506
58.30256
58.50809
57.16965
57.38968
55.81899
57.84049
58.18188
58.66746
57.6805
56.77975
54.45048
54.23902
53.32909
53.37701
51.88865
50.24232
54.9393
55.71149
54.0771
54.56445
54.06056
54.02123
52.174
50.20515
52.56692
55.205
53.44036
54.39104
52.98383
57.3957
58.92315
60.01792
58.2295
59.15096
59.54089
60.00583
61.1597
59.21972
57.63474
57.15797
57.24955
62.10315
61.49793
60.22522
58.76413
56.58098
55.04805
53.64962
52.95822
52.04834
51.04489
51.28454
52.42565
53.00881
54.96104
74.47382
83.88141
81.89274
83.94326
87.13517
84.56908
84.52701
83.56293
81.52344
81.97605
81.52276
81.23113
78.39248
75.9123
74.03928
72.36433
69.30474
68.45511
67.33404
68.97589
72.71047
72.58829
71.17199
69.41899
67.49192
66.28821
65.84405
65.35948
63.77666
62.29261
60.69528
62.76419
62.67675
62.09269
82.04464
86.71288
85.51911
88.9356
89.48306
86.90212
84.97769
81.82642
80.94096
82.08232
80.05359
78.97547
76.57794
74.24237
74.41292
74.36628
79.33869
84.04878
82.09458
82.06997
82.06354
79.99186
78.07601
81.82344
82.99748
82.85052
80.62905
77.72698
74.85648
74.5453
75.99135
74.23126
73.35759
73.22348
71.54538
70.73999
71.09213
69.20627
67.48582
65.19683
72.29063
85.45059
91.07126
90.78045
92.13114
95.53605
111.33134
119.69338
120.05743
121.2669
119.67212
115.03697
111.92433
107.99116
103.63965
100.18182
96.29526
94.0256
92.45163
88.82508
87.909
87.03408
86.1545
83.49418
84.27959
83.03605
82.78276
83.41971
82.08473
79.6051
75.94045
80.24471
78.56223
77.54778
74.48794
74.70595
73.59481
70.82875
70.55955
70.39816
67.68115
66.77535
70.18068
70.46063
68.7713
66.28692
64.65571
64.45102
63.71666
62.10547
61.11222
59.03064
57.30202
56.13759
54.4249
52.39098
80.34591
81.40763
81.08923
83.02286
80.54551
78.3094
75.47302
72.78423
71.45893
71.85258
68.86882
72.92105
71.80954
70.60672
72.4441
69.71309
66.79787
67.10231
65.77071
65.38281
65.65975
66.44691
68.80213
70.29698
72.16576
86.35964
87.90324
87.69872
87.6081
85.03966
81.80254
85.04736
88.21041
90.06395
88.63438
87.33621
87.5922
88.36418
87.00531
87.56779
86.81938
86.07942
84.2666
86.5197
90.93615
90.48643
94.00668
99.12335
100.72097
101.39518
102.83981
100.42197
98.53326
97.48731
94.73822
92.04049
93.62974
93.3919
92.59034
89.92103
88.52095
87.91231
84.63215
82.87271
80.64609
78.81351
79.41183
81.8817
81.60658
80.52539
81.47644
82.13812
89.11183
90.49812
89.36612
90.24139
89.15272
91.69681
100.38133
100.87909
98.69487
99.29523
95.562
92.78329
89.58448
88.59202
85.7883
84.94485
83.33236
88.16077
86.05214
84.52127
80.79404
83.37304
82.32853
81.50435
83.4819
135.12462
140.55
139.37358
135.05403
130.56232
129.3693
123.96435
119.02689
113.95426
110.79324
105.64586
103.08687
100.57495
98.98603
97.52203
96.0776
94.55634
91.81374
88.63348
103.65966
113.20968
113.54185
109.566
105.45414
102.48028
101.61383
97.41641
93.35667
91.24476
87.08014
88.29798
87.14884
84.56678
83.87201
80.60901
80.29265
78.58818
78.02688
75.48782
74.69797
74.01883
74.38034
73.74032
72.42458
70.20354
67.11757
66.35203
73.74046
74.63685
72.02494
72.05673
70.40053
68.54764
65.64781
63.78368
63.15699
63.31292
62.98699
60.85792
61.42093
61.62443
59.26769
56.67
55.44071
53.62494
51.84316
51.38365
51.21268
51.38891
49.37185
47.55457
46.30568
44.93098
43.40663
42.96044
42.31541
41.01502
39.79681
45.72418
51.99674
54.78197
54.47111
54.05532
52.11637
51.3852
58.37411
59.19453
59.52207
58.88406
57.89234
58.55789
57.44876
55.41599
53.38627
52.0694
51.50515
49.83479
50.77516
53.30265
55.74817
57.0833
75.64878
74.31458
71.09283
68.15405
67.05091
68.67441
65.91981
66.5234
65.76887
66.93895
66.81402
67.44231
70.74714
73.78521
75.46555
76.50729
80.1282
79.91833
79.72202
78.07616
76.13429
75.12327
74.66661
74.40328
73.00019
71.79089
70.51154
70.085
69.84679
68.73987
69.47703
67.76295
66.1356
72.62591
73.14906
72.92413
82.73741
81.67188
87.30674
89.0034
88.11245
85.7687
85.41094
91.23873
88.95167
88.9737
88.72129
91.63906
93.67912
92.40919
91.59424
89.45251
86.27662
86.04257
88.68239
88.18293
88.21058
85.17197
97.89969
107.61899
111.19407
108.94663
129.47687
130.16424
129.63751
125.94769
123.30857
121.14295
121.20203
116.68045
120.95685
125.46636
123.21162
123.39293
120.79987
118.24988
116.10917
112.95709
110.25801
109.44529
108.41563
104.06451
110.55133
109.55124
109.60044
107.20826
108.48339
106.15314
103.51221
101.24491
97.76098
102.51877
108.131
105.41664
106.17188
104.93103
101.40168
98.3187
94.40165
91.42225
87.9628
88.15903
87.5441
92.45523
93.78914
92.76135
97.20697
105.43647
106.56244
106.06798
106.20455
109.68994
108.50923
106.47286
108.79837
106.87634
108.21732
109.64536
107.75427
105.65539
102.01286
98.62837
94.47635
90.45589
90.67904
88.13268
84.95963
84.33966
85.40111
87.37175
84.67877
82.78528
81.67633
82.0616
80.68148
79.28066
76.77276
74.39613
71.33998
70.04427
68.23039
73.10036
75.19748
