atr
0.0
0.5
0.62143
0.8699
1.19348
1.41537
1.60713
1.78519
1.93625
2.24795
2.35881
2.63318
2.71652
2.87963
3.07394
3.28294
3.39131
3.38478
3.3073
3.37106
3.44456
3.43423
3.39607
4.06064
4.66345
4.68749
4.75981
4.77697
4.62861
4.64086
4.64508
4.62043
4.58326
4.67731
4.64322
4.63299
4.49492
4.45957
4.39817
4.41258
4.38311
4.64861
4.60228
4.50926
4.43002
4.57074
4.6014
4.49416
4.716
4.75057
4.98982
5.09055
5.16265
5.04389
4.93361
5.05978
5.04837
4.91634
4.85803
4.92532
4.98065
5.01775
5.70219
6.03061
6.04271
6.11109
5.93172
5.82231
5.74215
5.52485
5.51593
5.50765
5.45711
5.31731
5.17322
4.99656
4.91823
4.91693
4.80858
4.74368
4.84056
4.85195
5.05538
5.03
4.885
4.82893
5.20543
5.18362
5.1205
4.94761
4.81564
4.68595
4.52266
4.38533
4.25067
4.11133
4.01767
4.05212
3.96268
4.0582
4.12547
4.26651
4.28319
4.39153
5.06357
5.18045
5.33899
5.22907
5.55556
6.18016
6.08872
5.97524
5.87701
5.65008
5.53222
5.2942
5.4089
5.40112
5.23676
5.1127
5.31894
5.48902
5.41123
5.31043
5.33111
5.47175
5.55948
6.09094
6.11302
6.46209
6.43623
6.29792
6.35522
6.50127
6.85832
6.68987
6.66917
6.37851
6.1229
5.8927
5.7075
5.49268
5.56463
5.38859
5.36797
5.20598
5.29841
5.27709
5.2073
5.24249
5.48231
5.41215
5.38271
5.38394
5.27081
5.85146
5.89779
5.76223
5.77921
5.6307
5.42136
5.29127
5.1276
4.98278
5.18401
5.06372
4.95917
4.88351
4.99898
4.93476
4.87514
4.74834
4.49489
4.42383
4.34355
4.22616
4.16
4.09143
4.00633
3.93445
3.80342
3.68889
3.56825
3.44909
3.47416
3.39743
3.31904
3.23197
3.20826
3.17909
3.08059
2.98197
3.06183
3.39313
3.40076
3.47214
3.5527
3.45608
3.40922
3.35141
3.33346
3.4025
3.29517
3.25266
3.26319
3.26582
3.21826
3.24552
3.25656
3.33109
3.2503
3.11813
3.28827
3.91768
3.94499
4.13463
4.44644
4.40741
4.35688
4.42425
4.27251
4.17448
4.0263
4.01014
4.03084
4.14292
4.18986
4.2263
4.15299
4.07778
4.02936
3.90584
3.90542
3.89075
3.84855
3.90937
4.03013
4.19226
4.18567
4.17241
4.36724
4.40529
4.52634
4.57446
4.61914
4.71063
4.74559
4.61376
4.70563
5.14095
5.13088
5.04296
5.13275
7.46612
7.83997
8.36569
8.411
8.23164
8.18652
8.16606
8.48991
8.19777
7.93365
7.83124
8.01473
8.27082
8.25862
8.19014
8.17656
10.09966
10.30683
10.47063
11.65844
11.67569
11.61315
11.34792
11.07307
11.10356
11.13188
10.75818
10.32545
10.13077
9.94286
9.70409
9.48236
9.06934
9.11439
8.93479
8.76087
8.77795
8.42953
8.16313
7.7872
7.52382
7.63641
7.39809
7.18394
6.97081
6.78003
6.77432
6.61187
6.56102
6.53523
6.68986
6.71915
6.5535
6.42825
6.42623
6.1815
5.98997
5.79068
5.77706
5.86441
5.83124
6.3433
6.59735
6.56896
6.6069
6.44212
6.21054
6.68836
6.8749
7.10527
6.90489
6.7474
6.54401
6.39801
6.23387
6.24573
6.17818
6.2226
6.12813
6.08326
6.04874
5.81669
5.65835
5.6399
5.53705
5.44155
5.38858
5.41082
5.34576
5.63535
5.58997
5.73354
5.73115
5.64321
5.45441
9.10766
8.8214
8.3913
8.04907
7.73842
7.59282
7.35762
7.02493
6.82315
6.58578
6.37965
6.10968
6.15899
5.9262
5.68147
5.5328
5.38045
5.21756
5.0306
4.91412
4.88454
4.84279
4.71116
4.63894
4.53616
4.43357
4.28832
4.56058
4.43483
4.26805
4.09891
4.3847
4.62151
4.7914
4.71344
4.62677
4.71771
4.58788
4.40303
4.33853
4.20006
4.07148
3.93781
3.97796
4.00811
4.15039
4.26822
4.34191
4.94606
5.27849
5.49431
5.62329
5.6502
5.52518
5.42338
5.29314
5.25077
5.15429
5.24327
5.13304
5.28068
5.1392
5.3864
5.31594
5.27195
5.08109
5.06816
5.03472
5.06795
5.09881
4.9989
4.95612
4.87354
4.96829
5.22769
5.17572
5.19888
5.1061
4.86995
4.72924
4.5843
4.51399
4.40585
4.24114
4.36678
4.36915
4.19992
4.05707
3.96728
3.8839
3.76363
3.67337
3.51098
3.40306
3.25284
3.11335
3.21954
3.37529
3.58419
3.76389
4.00219
4.1306
4.24985
4.25343
4.3139
4.2129
4.11198
4.12541
4.28788
4.41732
4.71608
4.72208
4.72764
4.63281
4.9519
5.17676
5.15699
5.01721
5.21598
5.73627
6.22653
6.20321
6.83155
7.20073
7.15067
6.98277
7.184
6.99229
6.73569
6.54029
6.38027
6.2531
6.18503
6.09324
5.87229
5.83856
5.62152
5.55569
5.466
5.70414
6.03956
6.07959
6.06677
5.84057
5.74481
5.94876
6.0167
6.02265
6.30675
6.21341
6.02674
5.82483
5.65877
5.64743
5.49404
5.23732
5.24894
5.05973
4.83404
4.59589
4.49618
4.41789
4.27375
4.19705
4.07584
4.09185
4.09957
4.46389
4.32361
4.19335
4.02954
4.03458
4.07496
3.91247
3.79729
3.70463
3.58287
3.48409
3.40666
3.42047
3.39043
3.31969
3.26114
3.14249
3.13231
3.08
3.11714
3.01592
3.05764
3.15352
3.12113
3.27676
3.41414
3.3917
3.35658
3.41682
3.54419
3.48389
3.67076
3.70142
3.63703
3.57724
3.47887
3.41609
3.62208
3.59908
3.57057
3.45839
3.39708
3.283
3.22707
3.18228
3.0764
2.97095
2.93731
2.88464
2.80002
2.79288
2.8291
2.82702
2.77509
2.87687
2.92138
2.86271
2.77252
2.74591
2.70692
2.59214
2.66413
2.64526
2.64203
2.55331
2.73522
2.70413
2.65384
2.59285
2.66479
2.69587
2.64617
2.60001
2.74287
2.71124
2.889
2.89693
2.96144
3.01419
2.93461
2.86785
2.89872
3.13452
3.49634
3.50375
3.54634
3.46446
3.41699
3.42292
3.48557
3.42946
3.51307
3.98356
6.49188
7.08532
7.13637
7.24091
7.29513
7.03834
7.02131
6.86265
6.79389
6.74432
6.51259
6.58312
6.59147
6.47779
6.33652
6.36962
6.45751
6.56054
6.3705
6.12975
5.97049
5.85117
5.91894
5.71759
7.00919
6.99425
6.7518
6.64096
6.6166
6.34399
6.29799
6.19099
5.94878
5.77386
6.3543
6.72185
7.44886
7.25252
6.93448
6.78916
6.86136
6.74269
6.56107
6.27814
6.15113
6.29748
6.24766
6.24425
6.22681
6.02489
5.87311
5.93932
6.00794
6.20023
6.32164
6.63438
7.06764
7.11995
7.11853
7.07435
6.89118
6.83467
6.59648
6.5253
6.80206
6.90192
7.00892
7.15114
6.99035
7.03389
6.97433
6.81902
6.9248
6.82303
6.82853
6.57649
6.2996
6.55677
6.98843
6.91783
6.7737
6.61129
6.38906
6.13269
5.88036
5.71748
5.8948
6.0666
6.06899
6.14263
6.0753
6.01992
6.09707
6.18299
6.26278
6.13687
6.32709
6.20373
6.4106
6.41699
6.43006
6.79934
6.6851
6.52188
6.5346
6.32499
6.1232
5.85726
5.81746
5.73764
5.54209
5.3748
5.39089
5.32725
5.83245
5.92299
6.09992
5.94278
5.86115
6.10678
5.9063
5.96299
6.00135
6.17268
6.19606
6.25349
6.26395
6.32367
6.60769
6.49286
6.37908
6.70915
6.69421
6.68034
6.49603
6.60345
6.78892
