atr
0.0
0.44714
0.8152
1.13698
1.40076
1.62999
1.78428
2.56183
3.19741
3.55974
3.69476
4.17299
4.63492
5.866
6.47414
6.71599
7.10056
7.17195
7.03324
6.90729
7.05106
6.80884
7.12964
7.05895
7.13902
7.06338
7.16242
7.81439
7.84265
7.88675
7.81841
7.91709
7.91587
8.08188
8.27175
8.57876
8.57171
9.35516
9.16551
8.91511
8.89332
8.6338
8.5271
8.16445
8.05984
7.76271
7.72537
7.85499
8.27821
9.32191
9.62034
9.67889
9.6304
10.9118
11.35667
11.71548
11.81651
12.01891
11.88327
12.13447
12.90986
12.53916
12.55707
11.96157
11.70931
11.64079
11.16573
10.98532
10.54566
10.10097
9.73733
9.95895
10.76688
10.7121
10.37052
10.1212
9.81469
9.42792
9.33307
9.28785
9.23229
10.35213
10.4434
11.05816
11.29901
10.98765
10.80925
10.93716
10.66522
10.37699
9.93077
9.83072
9.6071
10.05873
10.01811
9.92539
9.535
9.54536
9.19712
9.13447
8.77415
8.45599
8.77128
8.52476
8.34728
8.10319
8.06153
7.77499
7.56035
7.67818
7.95117
7.70037
7.3482
7.1519
6.90819
6.62904
6.65982
6.40483
6.51663
6.45687
6.65852
6.99863
6.75444
6.83984
6.63699
6.45292
6.46914
6.50849
6.37931
6.41007
6.39578
6.33751
6.37698
6.45076
6.33785
6.12586
6.03616
6.04786
6.08944
6.21377
7.49993
8.56922
8.70427
8.94968
9.06542
8.94146
9.85421
10.28606
10.1042
10.20961
9.99678
10.53415
10.51671
10.26481
10.28375
10.24491
10.12742
10.11831
10.59486
10.80737
10.93185
10.626
10.64629
10.26584
10.29613
9.97641
9.69738
9.34043
9.60539
9.51072
9.64853
9.51649
9.41531
9.32993
9.59208
9.56765
9.36496
9.24246
9.18371
9.17559
9.14591
8.88048
8.98045
9.71113
9.88319
9.73082
9.85362
9.57836
9.14634
8.94017
8.9573
8.58535
8.68568
8.48171
8.18801
8.03673
8.09196
8.03611
7.90638
7.65593
7.89193
8.20394
8.2658
8.00467
7.89077
7.77285
8.00908
8.02414
7.91671
7.89694
7.67502
7.49537
7.57785
7.378
7.09957
6.98674
7.28983
7.26342
7.23674
7.15055
7.02194
6.9018
6.88881
6.80533
6.5578
7.01368
6.87556
6.69444
6.51341
6.40817
6.38116
6.3725
6.3659
6.27976
6.15621
5.92219
5.86703
6.0701
6.1551
6.21616
6.23572
6.59388
6.83003
6.83003
7.0386
7.03584
6.89186
6.65601
6.56701
6.40651
6.82461
6.585
6.86893
6.67329
6.60234
6.54217
6.35916
6.28636
6.08734
5.92824
5.72051
5.64976
5.59621
5.53933
5.51367
5.33483
5.3402
5.41662
5.29329
5.11305
5.00783
4.88799
4.92813
4.74612
4.63283
4.58763
4.50208
4.39693
4.36072
4.36281
4.65547
4.85222
4.95992
4.91493
5.60457
5.68639
5.59165
5.57296
5.64918
5.84424
5.66679
5.81131
5.71764
5.71352
5.56113
5.40605
5.39133
5.29338
5.18528
5.02776
4.98006
5.73434
5.97546
5.92579
6.19966
5.98111
6.0546
5.90642
5.73667
5.57477
5.33514
5.24263
5.2653
5.37207
5.26835
5.16489
5.22454
5.21422
5.18749
5.05338
5.361
5.36807
5.24892
5.19971
5.12045
4.97327
5.08161
4.9615
4.89639
4.8495
4.9074
4.96258
4.86811
4.76682
4.59419
4.44603
4.6256
4.5902
4.45804
4.33747
4.33979
4.23267
4.19247
4.09016
3.99514
3.89049
3.93617
4.26716
4.26165
4.32796
4.61167
4.56727
4.90889
5.10469
5.37221
5.16277
5.07971
5.00116
4.98965
4.94896
5.05618
4.95859
4.85012
4.72011
4.7251
4.55188
4.57961
4.44821
4.40262
4.31743
4.15262
4.05171
4.13088
4.07653
4.16678
4.10558
4.27161
4.44792
4.41093
4.26158
4.22503
4.08968
4.00256
3.94309
3.96144
3.97705
4.08226
4.12496
4.03175
4.03948
4.01809
3.97108
3.91529
4.02063
4.14415
4.14743
4.25832
4.29916
4.71708
5.00086
5.06222
5.01135
5.30911
5.19203
5.23617
5.12716
5.03093
4.95944
4.90305
4.79855
4.92651
4.98819
4.95689
4.98497
4.81104
4.71882
4.64676
4.60557
4.47088
4.38939
4.55301
4.41208
4.4305
4.47261
4.40528
4.25133
4.21981
4.16268
4.05749
3.98124
3.93615
3.95428
4.00398
3.96655
3.9418
3.87595
3.96196
3.77896
3.67403
3.67517
3.6848
3.66803
4.18389
4.35147
4.6785
4.66718
4.92453
4.90349
4.91395
4.87796
4.8631
4.94431
4.99615
4.95071
4.78637
4.64449
4.70202
4.78688
4.81496
4.84246
5.29943
5.4359
6.51048
6.50759
6.53133
6.90981
7.64196
8.11611
8.14567
8.76884
8.87821
8.77691
9.20213
9.03983
9.04842
8.98353
8.64328
9.3359
9.92334
10.13738
10.37686
10.49422
10.42178
10.23308
9.81286
9.89051
9.56905
9.26626
9.73295
9.7456
10.22663
10.36044
11.36541
11.98717
12.85737
13.36684
13.3385
13.0136
12.96478
12.99872
12.78953
12.83242
12.38939
12.21729
12.90605
12.92205
12.73762
12.1885
11.95861
11.68157
11.22002
10.73431
10.519
10.13479
9.86944
9.76448
9.67131
9.96264
9.77031
9.86029
9.8717
9.49515
9.31621
9.23648
9.13602
9.10487
9.00095
8.85517
8.88694
8.92073
8.6714
8.5963
8.35442
8.24339
8.05672
8.36695
8.42574
8.20819
8.04189
7.95961
7.8675
7.73196
7.44325
7.44945
7.58949
7.36666
7.1819
6.93034
6.70103
6.40238
6.31793
6.13522
6.20699
6.19935
6.12654
6.0125
5.88518
5.88552
5.81298
6.0442
6.05104
6.31882
6.31248
6.34373
6.48775
6.49291
6.60842
6.49139
6.82343
6.89319
7.05439
7.20765
7.01281
6.90333
6.90952
6.90527
7.00418
7.08531
7.00707
6.77942
6.63875
6.50027
6.55025
7.21952
7.23027
7.42953
7.34528
7.37633
7.21374
7.44418
7.58674
7.3634
7.41245
7.34656
7.12966
6.7704
6.53251
6.31948
6.18666
6.15404
6.16089
6.06511
5.91332
5.79023
5.66092
5.79086
5.68508
5.58615
5.46999
5.55357
5.39045
5.36257
5.22881
5.17461
5.07357
4.94117
5.01109
4.81029
4.71027
4.58097
4.4059
4.31333
5.05381
5.22211
5.16553
5.23442
5.06553
4.95942
4.81161
4.68364
4.64552
4.9837
4.93915
5.18706
5.32156
5.17359
5.15762
4.99422
4.96963
5.29037
5.25463
5.18144
5.03634
4.99089
4.9494
4.81372
5.01346
4.88821
5.13405
5.08948
5.14023
5.03521
4.89484
4.83664
4.90402
5.02588
5.21117
5.2668
5.38489
5.24597
5.38054
5.70193
5.68894
5.7883
5.67342
5.54317
5.48438
5.28335
5.29025
5.30309
5.57073
5.52568
5.67599
5.57341
5.51246
5.64585
5.62615
5.59857
5.5101
5.50509
5.66616
5.64214
5.45342
5.36032
5.25315
5.15936
5.08583
5.32541
5.2436
5.3162
5.36361
5.40907
5.53628
5.49012
5.50439
5.40908
5.41129
5.23905
5.41555
5.38515
5.39693
5.23215
5.62485
5.4995
5.33168
5.22728
5.07176
5.08592
5.01192
4.92107
4.91885
4.88393
4.8158
4.73038
4.60607
4.79778
4.73865
4.61232
4.38144
4.23776
4.24364
