atr
0.0
0.02429
0.04827
0.06482
0.0859
0.10477
0.118
0.14028
0.15241
0.15938
0.16728
0.2189
0.35184
0.40028
0.43383
0.43856
0.45294
0.45702
0.46652
0.48962
0.47179
0.46309
0.47216
0.45915
0.48992
0.47064
0.4606
0.45913
0.45562
0.45307
0.44
0.42928
0.41076
0.42856
0.41295
0.40131
0.39979
0.38052
0.3762
0.37718
0.37381
0.36925
0.36288
0.34839
0.33779
0.32152
0.31784
0.31085
0.30793
0.30879
0.29817
0.28901
0.28122
0.28828
0.27912
0.28489
0.28097
0.27448
0.27916
0.2785
0.27861
0.27871
0.27523
0.27128
0.28405
0.27805
0.2639
0.25362
0.25051
0.24404
0.24018
0.23945
0.23949
0.25096
0.25946
0.27164
0.27367
0.27341
0.26602
0.2613
0.26264
0.25745
0.29906
0.31913
0.33848
0.33001
0.32501
0.32108
0.31601
0.30772
0.30574
0.29033
0.28245
0.2937
0.32344
0.33962
0.34465
0.35146
0.3535
0.35468
0.3472
0.35026
0.33524
0.32558
0.34947
0.35093
0.34229
0.33927
0.32718
0.32453
0.30992
0.29635
0.29233
0.2793
0.2765
0.26675
0.26198
0.25612
0.24426
0.24895
0.26903
0.27553
0.27942
0.26946
0.25735
0.2504
0.2468
0.24274
0.24326
0.23803
0.23031
0.22529
0.22848
0.23645
0.23242
0.22296
0.22418
0.21959
0.21462
0.20786
0.20516
0.19979
0.20623
0.21579
0.22823
0.22407
0.21735
0.20754
0.20272
0.19609
0.19066
0.18204
0.1819
0.17676
0.17199
0.17471
0.19437
0.19334
0.2031
0.19717
0.19094
0.1873
0.19892
0.19543
0.1929
0.19198
0.18969
0.19186
0.20173
0.20089
0.19511
0.19332
0.18951
0.18597
0.18626
0.18153
0.1907
0.24565
0.25668
0.2562
0.26504
0.26968
0.26899
0.27121
0.26826
0.26553
0.25871
0.25451
0.26348
0.26537
0.2807
0.28422
0.28749
0.29053
0.28978
0.29336
0.30027
0.29453
0.2835
0.30325
0.31873
0.31239
0.32293
0.32344
0.32748
0.32623
0.31579
0.3118
0.30453
0.29778
0.28936
0.27727
0.27318
0.27009
0.26437
0.2662
0.26862
0.26229
0.26212
0.2534
0.24887
0.24181
0.24025
0.23452
0.23277
0.23471
0.24152
0.23713
0.22876
0.23313
0.23791
0.25306
0.24498
0.23748
0.22981
0.22768
0.22499
0.22034
0.21889
0.21754
0.242
0.24686
0.2378
0.24081
0.23718
0.23596
0.23696
0.24146
0.24279
0.24402
0.25301
0.24851
0.25576
0.25321
0.24941
0.24088
0.23867
0.23234
0.23003
0.2236
0.22477
0.22514
0.22763
0.23066
0.2599
0.25419
0.24175
0.23305
0.23212
0.22697
0.21861
0.21871
0.22309
0.21644
0.2067
0.20622
0.21149
0.20352
0.2047
0.20365
0.20053
0.19764
0.19423
0.19036
0.19534
0.19138
0.18843
0.18425
0.18966
0.18397
0.17726
0.17817
0.1833
0.18735
0.18397
0.20011
0.19439
0.18908
0.18772
0.19502
0.19681
0.19346
0.1925
0.19732
0.19966
0.19182
0.18384
0.17928
0.18433
0.17902
0.19052
0.19548
0.21009
0.2058
0.20967
0.20541
0.21145
0.20563
0.20023
0.20093
0.193
0.18707
0.20371
0.22273
0.22325
0.23231
0.24857
0.26653
0.26821
0.26333
0.26238
0.26221
0.2642
0.26318
0.2651
0.26545
0.27649
0.28174
0.27876
0.26742
0.27617
0.28573
0.27675
0.27127
0.26189
0.26247
0.26087
0.25866
0.25233
0.25716
0.25522
0.24556
0.25802
0.25245
0.24299
0.2442
0.23819
0.23618
0.22788
0.22803
0.2396
0.24248
0.23374
0.22847
0.22358
0.21761
0.21278
0.20472
0.2101
0.20652
0.20748
0.21838
0.22135
0.23768
0.26071
0.27208
0.27122
0.27328
0.2709
0.27012
0.26154
0.25929
0.25577
0.26178
0.29237
0.29149
0.28638
0.30735
0.29397
0.28797
0.28669
0.28407
0.27664
0.31259
0.36741
0.36402
0.35445
0.35984
0.35914
0.35992
0.35492
0.37886
0.40394
0.40508
0.42901
0.43479
0.41874
0.41311
0.42789
0.43161
0.42293
0.40986
0.39844
0.38641
0.36952
0.3667
0.37265
0.37317
0.37366
0.3684
0.36066
0.36347
0.35822
0.35049
0.34474
0.33083
0.31934
0.30582
0.30326
0.29517
0.30551
0.29726
0.31317
0.35438
0.34621
0.33862
0.32658
0.35611
0.37924
0.37215
0.38557
0.37803
0.37388
0.36861
0.41942
0.41089
0.4494
0.45016
0.46229
0.47712
0.46519
0.45482
0.44304
0.43211
0.44839
0.44922
0.46927
0.4629
0.45555
0.44658
0.45111
0.44175
0.46019
0.44946
0.48807
0.51393
0.51079
0.51502
0.51394
0.54152
0.54713
0.5409
0.52941
0.51659
0.50255
0.48166
0.47868
0.58377
0.63636
0.63591
0.72406
0.71662
0.68544
0.68648
0.6753
0.67135
0.65268
0.63678
0.67129
0.69477
0.828
0.82672
0.83052
0.80548
0.79009
0.77366
0.74125
0.73116
0.70608
0.72208
0.72336
0.70097
0.68876
0.67099
0.64164
0.6358
0.61968
0.63898
0.6712
0.67326
0.65802
0.67459
0.66569
0.66457
0.64139
0.64915
0.64921
0.63498
0.61177
0.5845
0.58132
0.57194
0.57823
0.57336
0.6074
0.6083
0.59842
0.58782
0.58726
0.59032
0.57601
0.58486
0.59737
0.5997
0.63044
0.67827
0.73767
0.75141
0.73345
0.74249
0.7316
0.7272
0.69954
0.67886
0.67609
0.66922
0.73999
0.73785
0.77586
0.77401
0.77658
0.75683
0.74063
0.7163
0.7137
0.71772
0.72289
0.69697
0.6979
0.69162
0.68079
0.67216
0.66915
0.64564
0.62524
0.61486
0.58523
0.59557
0.57589
0.56118
0.55252
0.53734
0.55039
0.52465
0.51003
0.49217
0.47987
0.49845
0.48928
0.4729
0.47627
0.47082
0.45933
0.45438
0.43907
0.46628
0.46868
0.50735
0.51683
0.49848
0.4843
0.46328
0.4459
0.44191
0.46392
0.49221
0.48205
0.47619
0.46503
0.47039
0.46608
0.46136
0.45126
0.43474
0.44512
0.44904
0.44482
0.43376
0.41849
0.42431
0.41758
0.45918
0.44638
0.4295
0.41525
0.42273
0.42182
0.44526
0.43989
0.44346
0.43322
0.4537
0.47129
0.4562
0.45004
0.44361
0.4355
0.45868
0.45377
0.45636
0.49805
0.52819
0.54332
0.58951
0.60526
0.61917
0.60708
0.58658
0.56682
0.62562
0.62522
0.60413
0.57955
0.6153
0.59635
0.57804
0.57603
0.56775
0.58005
0.5629
0.57484
0.56235
0.56504
0.58111
0.57889
0.58468
0.58292
0.56842
0.57711
0.63231
0.62072
0.60567
0.61241
0.62366
0.59697
0.59362
0.58693
0.59215
0.62128
0.67405
0.84447
0.94844
0.96641
0.92595
0.90838
0.89278
0.86973
0.83832
0.83272
0.82539
0.78857
0.78153
0.81142
0.79989
0.78133
0.80123
0.77686
0.74923
0.72928
0.70291
0.71413
0.74597
0.72269
0.7325
0.70375
0.69134
0.67839
0.66279
0.64616
0.63715
0.63807
0.63106
0.60884
0.59107
0.56671
0.54694
0.52287
0.51624
0.49151
0.49283
0.50477
0.48872
0.47024
0.45808
0.46178
0.48737
0.49327
0.47875
0.46741
0.45117
0.43323
0.418
0.41457
0.41853
0.41649
0.42103
0.4231
0.4543
0.45757
0.47489
0.46882
0.47676
0.47914
0.46206
0.4362
0.41504
0.40254
0.40235
0.39861
0.40443
