atr
0.0
8e-05
0.00014
0.0002
0.00038
0.00055
0.00061
0.00062
0.00065
0.00068
0.00071
0.00073
0.00096
0.00113
0.00121
0.00124
0.00142
0.00152
0.00181
0.00189
0.002
0.00214
0.00216
0.00216
0.00208
0.0022
0.00216
0.00209
0.00201
0.00196
0.00195
0.00193
0.00186
0.00189
0.00181
0.00175
0.00185
0.0019
0.00197
0.00203
0.00199
0.00206
0.00212
0.00207
0.00255
0.00266
0.00268
0.0027
0.00265
0.00255
0.00248
0.00238
0.00232
0.00223
0.00216
0.00208
0.00198
0.0019
0.00181
0.00179
0.00177
0.00185
0.00187
0.00195
0.00195
0.00208
0.00208
0.00216
0.00231
0.00231
0.00224
0.00218
0.00212
0.00205
0.00195
0.00186
0.00178
0.00172
0.00163
0.00156
0.00149
0.00141
0.00135
0.00131
0.00136
0.00139
0.00159
0.00159
0.00167
0.0017
0.00171
0.00176
0.00185
0.0019
0.002
0.002
0.00194
0.00206
0.00206
0.002
0.00198
0.00196
0.00201
0.002
0.00192
0.00184
0.00177
0.00178
0.00175
0.00198
0.00204
0.00211
0.00217
0.00221
0.00228
0.00238
0.0027
0.00268
0.00277
0.00272
0.00271
0.00269
0.00268
0.00298
0.00283
0.00277
0.00272
0.00292
0.00292
0.00292
0.00371
0.00398
0.00409
0.00398
0.00402
0.00393
0.00419
0.00425
0.00424
0.00429
0.00413
0.00409
0.00457
0.00458
0.0045
0.0046
0.00453
0.00453
0.00443
0.00435
0.00429
0.00415
0.00417
0.00422
0.00422
0.00404
0.00393
0.00383
0.00387
0.00385
0.00392
0.00395
0.00389
0.00376
0.00364
0.00363
0.00357
0.00351
0.00361
0.00379
0.0037
0.00376
0.00369
0.00363
0.00352
0.00343
0.00335
0.00328
0.00318
0.00304
0.00296
0.00282
0.00272
0.00268
0.00277
0.00275
0.00278
0.00276
0.00268
0.00267
0.00263
0.00274
0.00292
0.00286
0.00281
0.00272
0.00263
0.00253
0.00251
0.00241
0.0023
0.00226
0.00258
0.00258
0.00249
0.00252
0.00239
0.00231
0.00236
0.00262
0.00272
0.00266
0.00269
0.00324
0.00331
0.00385
0.00406
0.00456
0.00461
0.00466
0.00455
0.0047
0.00462
0.00445
0.00423
0.00415
0.00401
0.00395
0.00386
0.0037
0.00362
0.0035
0.00358
0.0036
0.00368
0.00356
0.00357
0.00386
0.00376
0.00374
0.00386
0.00382
0.0039
0.0039
0.00403
0.00401
0.00408
0.00384
0.00364
0.00433
0.00443
0.00443
0.00449
0.00444
0.00426
0.00423
0.0041
0.004
0.00397
0.00407
0.00422
0.00425
0.00442
0.00436
0.00438
0.00449
0.00458
0.00462
0.00448
0.00439
0.00427
0.00413
0.00397
0.00386
0.0037
0.00356
0.0034
0.00325
0.00319
0.00308
0.00293
0.00282
0.00274
0.00278
0.00283
0.00282
0.00312
0.00318
0.00327
0.00328
0.00348
0.00347
0.00348
0.00345
0.00349
0.00345
0.00336
0.00324
0.00313
0.00299
0.00296
0.00292
0.00285
0.00278
0.00264
0.00255
0.00263
0.00282
0.00289
0.00301
0.00298
0.00303
0.00322
0.00336
0.0036
0.00368
0.00373
0.00383
0.00404
0.00409
0.00396
0.00374
0.0037
0.0038
0.0039
0.00386
0.00388
0.00384
0.00371
0.00354
0.00363
0.00402
0.00428
0.00433
0.00434
0.00456
0.00505
0.00506
0.00496
0.00536
0.00537
0.00534
0.00525
0.00511
0.00496
0.00489
0.00465
0.00442
0.00426
0.00454
0.0045
0.00438
0.00434
0.00422
0.00419
0.00452
0.00448
0.00471
0.00474
0.00472
0.00481
0.00477
0.00485
0.00511
0.00517
0.0051
0.00495
0.00485
0.00479
0.00451
0.00423
0.00419
0.004
0.00421
0.00423
0.00427
0.00433
0.00415
0.00398
0.00387
0.00379
0.0039
0.00408
0.00394
0.0039
0.00385
0.00381
0.00439
0.00459
0.00471
0.00481
0.00479
0.00468
0.00457
0.00443
0.00424
0.00402
0.00392
0.0038
0.00395
0.00391
0.00383
0.00373
0.00362
0.00353
0.00391
0.00381
0.00384
0.00388
0.00385
0.00386
0.00399
0.00417
0.00424
0.00417
0.0042
0.00418
0.00405
0.00396
0.00392
0.0038
0.00377
0.00363
0.00367
0.00358
0.0035
0.00337
0.0032
0.00316
0.00305
0.00308
0.00322
0.00314
0.00322
0.0032
0.00316
0.00319
0.00309
0.00326
0.00324
0.00321
0.00316
0.0031
0.00298
0.00285
0.00279
0.00267
0.00291
0.00285
0.00281
0.00269
0.00259
0.00251
0.00246
0.00251
0.00254
0.00253
0.00249
0.00249
0.00267
0.00277
0.00286
0.00296
0.00301
0.00297
0.00293
0.00293
0.00292
0.00279
0.00271
0.00269
0.00267
0.00262
0.00269
0.00271
0.00267
0.00261
0.0027
0.00283
0.00291
0.00289
0.00289
0.00288
0.00294
0.00298
0.00299
0.0032
0.00325
0.00329
0.00327
0.00315
0.00312
0.00293
0.0028
0.00272
0.00267
0.00263
0.00273
0.00288
0.00286
0.00273
0.00264
0.00258
0.00262
0.00276
0.00277
0.00274
0.00277
0.00269
0.00269
0.00285
0.00283
0.00281
0.00285
0.00275
0.00264
0.00264
0.00265
0.0026
0.00262
0.00251
0.00246
0.00271
0.00269
0.00264
0.00256
0.00248
0.00239
0.00246
0.0024
0.0024
0.00239
0.00246
0.00252
0.00259
0.00257
0.00276
0.00299
0.00314
0.00324
0.00319
0.00317
0.00309
0.00294
0.00284
0.00274
0.00264
